V1,V2,V3,V4,V5,V6
3.702393617022189942e-02,6.826755319148680723e-02,-2.074113475175578397e-03,-6.129202127660028643e-02,-8.419024822694907984e-02,-9.743705673758254471e-02
2.845000709220770960e-02,5.958004964538755194e-02,-1.005311702127484677e-02,-6.070471985816054683e-02,-8.364945390070795128e-02,-9.685297517729887784e-02
2.819274468086015520e-02,6.753421276595490685e-02,-5.573787234040603056e-03,-5.597575177305438160e-02,-7.063365957446664234e-02,-8.380222695034837688e-02
3.210214893617903409e-02,7.128004255318916293e-02,-1.152790780140137278e-03,-5.546345035461464762e-02,-6.599286524822574329e-02,-7.912647872339828581e-02
2.769488652483171470e-02,6.253420567375658767e-02,-9.240127659572740931e-03,-6.746781560284176305e-02,-8.219373758865122781e-02,-9.528406382978123201e-02
3.163762411348392672e-02,6.214670212765730645e-02,-8.994131205672040857e-03,-7.114718085106844225e-02,-8.176127659574343454e-02,-8.644998226949759945e-02
3.143869503546970617e-02,6.597586524822444953e-02,-8.723134751771347006e-03,-6.232654609929585282e-02,-6.882048226950213121e-02,-8.179090070921371525e-02
3.125643262412215045e-02,6.565502836879183457e-02,-1.104716312040066040e-04,-5.768924468085546292e-02,-6.422135460992790812e-02,-7.299015248226341235e-02
3.109083687944126650e-02,6.116752482269279673e-02,-1.233114184396970348e-02,-6.556860992908281061e-02,-7.213889361702052749e-02,-8.087273758864638173e-02
3.092524113476037562e-02,6.082168794326017758e-02,-2.038514539006897053e-02,-7.344797517730927705e-02,-7.173976595744606388e-02,-9.292198936169623891e-02
3.075964539007949167e-02,5.630918439716069146e-02,-1.593081560283517162e-02,-7.297734042553619127e-02,-6.715730496453761744e-02,-8.829624113474569824e-02
3.059404964539860078e-02,5.596334751772807925e-02,-1.980981914893423235e-02,-6.831503900709670618e-02,-7.089151063829714217e-02,-7.532049290779563311e-02
3.042012056738438441e-02,5.560917730496213462e-02,-1.534715602836710102e-02,-6.781940425532362315e-02,-6.628404964538869848e-02,-7.482807801417863669e-02
3.024619148937016111e-02,5.524667375886285065e-02,-1.920949290779949692e-02,-6.732376950355056788e-02,-7.417658865248132061e-02,-8.684399645389470623e-02
3.006392907802260886e-02,5.486750354609690183e-02,-1.890516312056546300e-02,-7.099480141844391468e-02,-7.790246099290662474e-02,-8.635158156027770981e-02
2.988166666667505661e-02,5.864666666666450145e-02,-2.275083333333163468e-02,-7.464083333333818016e-02,-8.161166666666526404e-02,-8.584249999999404857e-02
2.969940425532750089e-02,5.824249645389854846e-02,-2.242983687943093246e-02,-6.996186524823111430e-02,-7.700420567375770853e-02,-8.119175177304395474e-02
2.534214184398018294e-02,4.950499290779885458e-02,-2.627550709219666006e-02,-7.361623049645871220e-02,-8.489674468085033066e-02,-8.905767021276025930e-02
2.930987943263239220e-02,5.325082269503311760e-02,-2.592951063829595712e-02,-7.724559574468539691e-02,-8.443928368794254014e-02,-9.272358865247636028e-02
2.911095035461817165e-02,5.281331914893383495e-02,-2.558351418439525418e-02,-7.668329432624565456e-02,-7.563182269503432309e-02,-8.805617375885960163e-02
2.890368794327061869e-02,5.237581560283455229e-02,-2.938751773049476032e-02,-7.610432624113926126e-02,-7.513269503545985661e-02,-8.753042553190927555e-02
3.286309219858993963e-02,5.192164539006860480e-02,-2.484985460992718623e-02,-7.135035815603309184e-02,-7.460856737588539289e-02,-8.282134397162541073e-02
3.263916312057571489e-02,5.144247517730266006e-02,-2.447052482269315710e-02,-7.489639007092645240e-02,-8.239277304964462423e-02,-8.643726241134194743e-02
3.658190070922792692e-02,5.510497163120358505e-02,-1.991619503545935879e-02,-7.009242198582028849e-02,-7.766864539006951285e-02,-8.172818085105808261e-02
3.219963829788061171e-02,5.042580141843742980e-02,-2.785353191489196162e-02,-7.359678723404697309e-02,-8.126951773049570504e-02,-8.951076595744106301e-02
2.780904255319951654e-02,4.989663120567147669e-02,-2.743253546099126000e-02,-7.709281914894033916e-02,-8.486205673758767665e-02,-8.476835106382429874e-02
2.759344680851862769e-02,4.935079432623886569e-02,-3.531153900709052551e-02,-7.638885106383394574e-02,-8.427126241134655360e-02,-9.250093617020727077e-02
2.319451773050464766e-02,4.877995744680625051e-02,-3.485720921985649423e-02,-7.565988297872752733e-02,-7.950546808510565444e-02,-8.772518794325673275e-02
2.710392198582352308e-02,4.817578723404029872e-02,-3.440287943262246295e-02,-7.491424822695447183e-02,-8.304800709219761767e-02,-9.128277304963994254e-02
2.683832624114263626e-02,4.754661702127435663e-02,-2.977354964538821841e-02,-6.998528014184829393e-02,-8.239887943262315384e-02,-8.649869148935607210e-02
2.657273049646174598e-02,4.689244680850840341e-02,-3.346088652482105685e-02,-7.335631205674165989e-02,-7.754975177304893053e-02,-9.003127659573928465e-02
3.049046808511440138e-02,4.622160992907579230e-02,-2.877322340425348193e-02,-7.251067730496858765e-02,-6.850895744680737809e-02,-8.520552836878875214e-02
3.439987234043327680e-02,4.552577304964317700e-02,-2.406056028368635039e-02,-7.164837588652885059e-02,-6.363482978723315753e-02,-7.621311347517177592e-02
3.412594326241905757e-02,4.895493617021076660e-02,-3.182289716311895167e-02,-7.072774113475577273e-02,-6.705236879432512065e-02,-8.383736524822141267e-02
2.967701418440507263e-02,3.984243262411107933e-02,-3.539356737588467833e-02,-7.394043971631669709e-02,-7.460324113475107211e-02,-9.144495035460439847e-02
2.521975177305731119e-02,3.904659574467846117e-02,-3.477257092198397792e-02,-7.711980496454338974e-02,-8.212078014184279184e-02,-9.486920212765427574e-02
2.908748936170996516e-02,4.237575886524605484e-02,-3.412657446808327333e-02,-7.189917021277056342e-02,-7.712165248226857117e-02,-8.994345390070374036e-02
3.294689361702884262e-02,4.151325531914677736e-02,-2.511391134751593535e-02,-6.246186879433040379e-02,-7.625585815602745066e-02,-8.084270567375342886e-02
3.263129787234795437e-02,4.478408510638103718e-02,-2.438458156028190313e-02,-6.131623404255734378e-02,-7.538173049645298385e-02,-7.590029078013668662e-02
2.814070212766730389e-02,3.968824822694821952e-02,-2.781358510638140893e-02,-6.429559929078403069e-02,-7.447426950354518738e-02,-7.928287588651944384e-02
2.778343971631975357e-02,3.870074468084893499e-02,-3.123425531914713477e-02,-7.555829787234447092e-02,-7.767514184397047994e-02,-8.264046099290266179e-02
2.325117730497198998e-02,3.352157446808277930e-02,-2.627992553191333888e-02,-6.592099645390521456e-02,-7.248434751772958595e-02,-7.763137943261878837e-02
2.706058156029131356e-02,3.665907092198370659e-02,-2.128392907801242989e-02,-6.040869503546482389e-02,-6.313521985815470638e-02,-6.843896453900182031e-02
2.251998581561021756e-02,3.143823404255088882e-02,-2.877126595744503024e-02,-6.318806028369240713e-02,-6.208609219858025191e-02,-7.591321631205145970e-02
2.212105673759599822e-02,3.034239716311827248e-02,-2.790026950354432961e-02,-6.175075886525267094e-02,-6.099529787233912148e-02,-7.503746808510113053e-02
2.588046099291531690e-02,2.922989361701899130e-02,-2.286260638297719916e-02,-6.028845744681293750e-02,-5.991283687943132347e-02,-7.417005319148413378e-02
2.129819858156755535e-02,2.810072340425304183e-02,-2.199994326240983095e-02,-5.880948936170653230e-02,-6.300537588652417587e-02,-7.331930496453380186e-02
2.503260283688687679e-02,2.696321985815375993e-02,-2.530394680850889255e-02,-6.148052127659989208e-02,-5.776458156028239227e-02,-6.831022340425038641e-02
2.458367375887265602e-02,2.998404964538801953e-02,-2.862461702127506308e-02,-5.998488652482682204e-02,-4.837378723404173880e-02,-7.166780851063314639e-02
2.413474468085843525e-02,2.467987943262186373e-02,-1.947028723404105668e-02,-5.433091843972065460e-02,-5.565799290780013703e-02,-7.087539361701615526e-02
2.368581560284421794e-02,2.355070921985591426e-02,-1.867429078014035473e-02,-5.286861702128092116e-02,-5.465886524822567011e-02,-6.594964539006606397e-02
2.740355319149642699e-02,2.243820567375663655e-02,-1.791996099290632180e-02,-5.143964893617451739e-02,-4.955140425531810722e-02,-6.523223049644906457e-02
1.861295744681557007e-02,1.717570212765759385e-02,-2.555729787233892297e-02,-5.422734751773454487e-02,-4.448560992907721334e-02,-6.872314893616515707e-02
1.815569503546801342e-02,1.193819858155810432e-02,-2.492796808510488668e-02,-5.290671276596147637e-02,-4.781981560283584537e-02,-6.810573404254816055e-02
1.770676595745379611e-02,1.506736170212570614e-02,-2.851530496453772920e-02,-5.165274468085506721e-02,-5.539568794326180795e-02,-7.169665248226471388e-02
2.144117021277311755e-02,1.823819148935951900e-02,-2.382764184397015428e-02,-5.046544326241533818e-02,-5.884656028368710767e-02,-7.530423758864747408e-02
1.687557446809202083e-02,2.146735460992710981e-02,-1.918997872340257732e-02,-4.520314184397583590e-02,-5.403076595744621402e-02,-6.644515602836384427e-02
2.485164539007777076e-02,2.476318439716136688e-02,2.064351063831160269e-03,-2.754917375886860309e-02,-3.264830496453782760e-02,-4.931107446808023764e-02
2.867771631206375918e-02,3.226734751772872278e-02,3.575201418439841183e-02,2.504794326237028135e-03,-1.133251063829699562e-02,-3.223532624112997180e-02
2.418712056738266461e-02,3.149651063829610881e-02,6.936467730496610751e-02,2.829209574467711832e-02,1.407495035461115568e-02,-6.867911347513062578e-03
1.972152482270201485e-02,3.910900709219679999e-02,7.375234042553323321e-02,3.312939716311661537e-02,1.854907801418537866e-02,-6.558829787229400118e-03
2.789262411354518842e-03,3.427983687943064739e-02,7.390667021276726978e-02,3.785836524822366878e-02,2.295653900709293538e-02,-2.124748226945529731e-03
-1.411799999999341880e-02,3.785066666666490887e-02,9.901933333333455545e-02,6.750399999999597000e-02,5.233900000000085012e-02,1.897600000000450315e-02
-3.515859574467401077e-02,3.315482978723208879e-02,1.074319964539023342e-01,8.040796808510254634e-02,6.084646099290905857e-02,4.006841489362164554e-02
-6.034085815602147768e-02,1.600899290779953660e-02,9.914465957446928768e-02,7.657026950354252348e-02,6.097058865248352472e-02,5.280249645390548696e-02
-7.300645390070253926e-02,7.246489361700282628e-03,9.917398936170332413e-02,8.517423758864844929e-02,7.771971631205792930e-02,6.135324468085578964e-02
-7.731371631205030681e-02,-9.799347517732273638e-03,7.835331914893765848e-02,6.871987234042158110e-02,6.528551063829887702e-02,5.737899290780591049e-02
-6.909597872339788560e-02,-1.847018439716485716e-02,4.085764893617159499e-02,4.389050709219518426e-02,5.282630496453983443e-02,4.506307446808983930e-02
-4.838657446807861917e-02,2.042312056735565151e-03,2.000364539007215212e-02,2.736114184396831045e-02,4.449209929078144082e-02,2.855548936170689348e-02
-3.185217021275957294e-02,1.738141843969615019e-03,2.413297517730639621e-02,3.163177659574114425e-02,4.447456028368923509e-02,3.287290425532365251e-02
-2.779276595744024914e-02,-2.707695035462760746e-03,1.160397163120691945e-02,1.505241134751427075e-02,2.778202127659620824e-02,2.469031914894068147e-02
-1.122502836878786110e-02,1.196468085104387957e-03,-9.258365248225415220e-03,-9.868620567379681255e-03,-5.560517730495879996e-03,-1.683393262410884036e-02
9.517709219864733255e-03,9.506312056717716730e-04,-1.760403546099135325e-02,-3.062298581560631699e-02,-3.056139007092088106e-02,-4.166651773049220159e-02
1.776044680851714824e-02,7.214609929058271587e-04,-2.177470567375752383e-02,-3.886901773050032566e-02,-4.304559574467992783e-02,-5.397410283687494037e-02
2.183651773050269279e-02,4.667290780140088968e-03,-2.594537588652369442e-02,-4.710671631206012067e-02,-5.133813475177254754e-02,-6.209835460992457756e-02
2.174592198582180405e-02,4.446453900707476870e-03,-3.427437943262296588e-02,-5.118608156028681133e-02,-5.959734042553094246e-02,-7.438093971630775625e-02
2.581365957447446027e-02,8.383950354607962174e-03,-3.012004964538872454e-02,-5.109044680851373976e-02,-6.369821276595624693e-02,-7.416352482269075730e-02
2.570639716312690670e-02,8.163113475175350076e-03,-3.013238652482135363e-02,-5.516147872340799313e-02,-7.199908510638219905e-02,-7.395444326240710464e-02
2.978246808511244778e-02,7.958943262409402808e-03,-3.430305673758752422e-02,-5.506584397163492156e-02,-7.199162411347440060e-02,-7.375369503545677052e-02
2.969187234043156251e-02,3.596439716310358137e-03,-3.429039361702015953e-02,-5.497854255319518241e-02,-5.948416312056641758e-02,-6.940294680850622733e-02
3.794294326241730991e-02,3.392269503544410869e-03,-3.426939716311945550e-02,-5.488290780142211778e-02,-5.528503546099219207e-02,-6.503553191488947727e-02
2.952734751773645333e-02,3.196432624111796017e-03,-3.843173404255185305e-02,-5.478727304964904621e-02,-5.941090780141749378e-02,-7.317645035460577929e-02
3.360341843972244197e-02,2.992262411345848749e-03,-4.259407092198469469e-02,-5.885830496454240446e-02,-6.771178014184345284e-02,-7.298403546098879147e-02
2.934615602837468279e-02,-1.370241134753640011e-03,-4.257307446808399065e-02,-5.875433687943600741e-02,-7.184598581560208697e-02,-7.277495390070512493e-02
2.508889361702736423e-02,2.600588652480619045e-03,-4.255207801418328661e-02,-5.865036879432960343e-02,-6.763852482269452904e-02,-6.839920567375458449e-02
2.917329787234624119e-02,6.571418439714434012e-03,-3.836441489361571561e-02,-5.854640070922319944e-02,-7.177273049645316316e-02,-7.235679078013779186e-02
3.324936879433222636e-02,2.720058156028196811e-02,-3.836008510638167640e-02,-6.680909929078299170e-02,-8.842360283687862588e-02,-8.883937588652074391e-02
6.232543971631812618e-02,1.103297446808494953e-01,1.164424468085217823e-02,-7.089679787234390296e-02,-1.259078085106371536e-01,-1.428302943262371172e-01
9.140151063830358191e-02,2.101255744680836368e-01,1.408319078014197423e-01,2.383687942957490521e-05,-1.217170141843962466e-01,-1.842962127659532878e-01
2.880258156028935729e-02,1.682547375886507268e-01,2.325195709219872453e-01,1.501194716312021227e-01,4.496544680851184694e-02,-6.325379787233650908e-02
-1.254546808510578759e-01,-4.861609929078155451e-02,1.492072340425544541e-01,2.877067730496420395e-01,3.283062411347528742e-01,1.911052836879473527e-01
-3.463702765957391017e-01,-3.321452695035478353e-01,-7.993843617021136050e-02,4.086274078014153210e-01,7.366470354609938598e-01,5.787976985815642683e-01
-6.339525390070867017e-01,-6.406744397163135485e-01,-3.840924397163106851e-01,5.712147092198547327e-01,1.286654496453901508e+00,1.128981780141848024e+00
-9.173764680851008713e-01,-9.200369432624129207e-01,-7.882464432624101125e-01,6.421353439716281919e-01,1.774178624113475822e+00,1.633357528368798217e+00
-1.100800397163114841e+00,-1.161907780141845592e+00,-1.179900446808509251e+00,6.172143120567342711e-01,2.045027751773050184e+00,1.958558276595748548e+00
-1.059215992907795778e+00,-1.312111950354611478e+00,-1.334054450354608790e+00,4.881266134751742203e-01,1.936710212765958561e+00,1.979600691489365571e+00
-7.717899219858099791e-01,-1.133141120567377369e+00,-1.338208453900707751e+00,9.653891489361401956e-02,1.220059340425532879e+00,1.467301439716315992e+00
-4.093638510638243910e-01,-7.624869574468101652e-01,-1.234029124113474429e+00,-3.908821170212793961e-01,3.367501347517736221e-01,7.591688546099329971e-01
-1.344377801418387142e-01,-4.210077943262426903e-01,-9.798497943262396426e-01,-5.783031489361729616e-01,-1.924007375886520044e-01,2.135279361702163703e-01
2.799662411348048663e-02,-1.920286312056754818e-01,-7.048287978723395408e-01,-4.990575141843999751e-01,-2.965516099290769758e-01,-3.210464893616642862e-02
4.042269503546644382e-02,-8.804946808510780154e-02,-5.047994680851053406e-01,-3.739785460992935961e-01,-2.382024822695031352e-01,-7.773723404254949398e-02
1.534043262411897979e-02,-3.407863829787371318e-02,-3.214534716312043572e-01,-2.530745780141869239e-01,-1.757033546099286969e-01,-7.755315248226582470e-02
1.944150354610452158e-02,-1.759947517730636735e-02,-1.797741418439703920e-01,-1.696706099290808401e-01,-1.423792269503534602e-01,-8.987740425531523525e-02
3.604257446809024101e-02,3.046354609927387491e-03,-1.005864787234030944e-01,-1.154333085106415135e-01,-1.132134326241130973e-01,-8.969332269503156596e-02
4.847697872340953062e-02,2.786718439716179274e-02,-5.889048226950253234e-02,-9.035434042553476541e-02,-1.090309716312046484e-01,-9.783424113474832595e-02
5.674471631206194633e-02,3.602134751772914645e-02,-3.386115248226858471e-02,-8.195037234042794327e-02,-1.090068439716301851e-01,-1.018001595744644217e-01
6.084578723404793221e-02,4.000884397162962625e-02,-2.549848936170124800e-02,-8.604640425532220083e-02,-1.173160496453894697e-01,-1.140994113475142652e-01
6.493852482270014159e-02,4.399634042553055013e-02,-1.714415957446679961e-02,-8.180910283688180851e-02,-1.214335886524814390e-01,-1.180653297872303747e-01
6.903959574468612748e-02,5.215050354609790384e-02,-8.781496453899461166e-03,-7.756346808510897195e-02,-1.213927943262403109e-01,-1.178562482269467082e-01
6.897400000000523945e-02,5.196299999999862140e-02,-4.271666666654566537e-04,-6.915116666666970557e-02,-1.213686666666658476e-01,-1.176471666666630417e-01
6.890840425532435143e-02,5.594216312056576879e-02,7.927163120568549159e-03,-6.491386524822932713e-02,-1.171945390070916193e-01,-1.091130851063794038e-01
6.885114184397680970e-02,5.992965957446669267e-02,7.956492907802583878e-03,-6.484323049645625281e-02,-1.130204113475173910e-01,-1.089206702127624160e-01
6.879387943262925409e-02,5.975882269503407507e-02,1.214415602836971426e-02,-6.060592907801675561e-02,-1.046546170212758475e-01,-1.045615886524789845e-01
6.872828368794836607e-02,5.542131914893458355e-02,1.216515248227041483e-02,-5.636862765957725840e-02,-1.046304893617013843e-01,-1.085275070921950802e-01
6.449602127660060413e-02,5.524214893616863353e-02,1.218614893617111714e-02,-5.213132624113776120e-02,-1.046230283687935858e-01,-1.041684255319116625e-01
6.860542553191992243e-02,5.507131205673601593e-02,2.054047872340512143e-02,-5.205235815603135446e-02,-1.004405673758860251e-01,-1.039760106382946608e-01
6.854816312057236682e-02,5.906714184397027223e-02,2.056147517730582200e-02,-4.781505673759096908e-02,-1.046081063829779889e-01,-1.038002624113443378e-01
7.266590070922457345e-02,6.307130496453741686e-02,2.892413829787316218e-02,-3.941108865248504206e-02,-9.625897872340399841e-02,-9.944951418439379465e-02
6.428363829787706041e-02,5.457546808510486958e-02,2.894513475177386622e-02,-3.933212056737863532e-02,-8.789318439716246878e-02,-9.509876595744370942e-02
6.423470921986283722e-02,5.440463120567225197e-02,3.729946453900787051e-02,-3.925315248227223552e-02,-9.203572340425443532e-02,-9.074801773049316622e-02
6.419411347518194644e-02,5.840879432623984763e-02,3.732046099290857455e-02,-3.916585106383249637e-02,-9.200326241134663963e-02,-9.888893617020948212e-02
6.413685106383439083e-02,6.241295744680699920e-02,4.150812411347614556e-02,-3.492021631205966675e-02,-8.362080141843931946e-02,-9.452985460992605060e-02
6.407125531915350281e-02,6.224212056737438159e-02,4.568745390071039109e-02,-3.066624822695260960e-02,-7.941334042553087336e-02,-9.016243971630885645e-02
6.401399290780594720e-02,6.207961702127510334e-02,4.986678368794418559e-02,-2.642061347517977651e-02,-8.354754609929039566e-02,-8.996169148935852233e-02
6.812339716312526550e-02,6.608378014184269900e-02,5.404611347517843112e-02,-2.634997872340670566e-02,-9.602341843971611002e-02,-8.976927659574152063e-02
6.389946808511084986e-02,6.175460992907654684e-02,5.405877659574579580e-02,-2.627934397163363828e-02,-9.599095744680831432e-02,-8.957686170212453280e-02
6.385053900709662666e-02,6.159210638297726859e-02,5.407977304964649984e-02,-2.619204255319390259e-02,-7.929182978723302300e-02,-8.938444680850753110e-02
5.963494326241597365e-02,6.142960283687799034e-02,5.826743617021363369e-02,-2.611307446808749932e-02,-6.674270212765927301e-02,-8.502536524822365549e-02
6.792768085106838660e-02,6.542543262411223970e-02,6.662176595744763452e-02,-1.352577304964758427e-02,-6.252690780141749449e-02,-7.649961702127336394e-02
6.372041843972062192e-02,6.526292907801296839e-02,6.246776241134857632e-02,-1.760513829787427667e-02,-6.245278014184302978e-02,-8.046553546098990373e-02
6.367982269503974502e-02,6.510875886524702949e-02,6.664709219858237776e-02,-2.168450354610185898e-02,-7.488698581560207512e-02,-8.442312056737266701e-02
6.782256028369239298e-02,6.912125531914795062e-02,7.083475531914995571e-02,-2.158886879432879088e-02,-8.317119148936136241e-02,-8.421403900708901435e-02
6.363196453901129312e-02,7.314208510638176008e-02,6.669741843971710438e-02,-2.149323404255572278e-02,-8.728039716311999929e-02,-8.817995744680555414e-02
6.776636879433062255e-02,7.300458156028248602e-02,6.672674822695114083e-02,-2.139759929078265122e-02,-8.305626950354577653e-02,-8.797920921985522003e-02
6.355910638298285786e-02,7.285041134751651937e-02,7.090607801418538636e-02,-1.714363120567560100e-02,-7.469047517730421915e-02,-8.779512765957156462e-02
6.352684397163531338e-02,7.270457446808389901e-02,7.091874113475275798e-02,-1.288966312056943550e-02,-7.050801418439665846e-02,-7.926937943262125918e-02
6.347791489362109019e-02,7.672540425531815256e-02,7.092307092198678331e-02,-1.281069503546303223e-02,-7.050055319148886002e-02,-7.909363120567093619e-02
6.344565248227353182e-02,7.657956737588553220e-02,7.509406737588725234e-02,-1.274006028368996138e-02,-7.466809219858082380e-02,-8.309288297872036155e-02
6.758839007092619366e-02,8.060039716311934166e-02,7.510673049645462396e-02,-1.683609219858332381e-02,-8.716896453900653541e-02,-8.709213475177024488e-02
6.756446099291196772e-02,8.463789361702027392e-02,8.346106028368863172e-02,-1.674879078014358813e-02,-9.962817021276558493e-02,-8.273305319148638315e-02
6.753219858156440936e-02,8.450872340425433227e-02,8.348205673758932188e-02,-1.249482269503741916e-02,-9.125404255319070901e-02,-9.086563829786979685e-02
6.749993617021686487e-02,8.853788652482147414e-02,8.349471985815669350e-02,-8.240854609931253655e-03,-7.456324822694963828e-02,-9.067322340425279514e-02
6.747600709220263893e-02,9.674204964538883622e-02,9.601571631205757518e-02,-3.995219858158420567e-03,-7.454745390070850741e-02,-9.049747517730247215e-02
6.745207801418842686e-02,9.660454609928954828e-02,9.603671276595827921e-02,-3.924585106385351449e-03,-7.453165957446737655e-02,-8.615506028368526137e-02
6.325314893617399459e-02,1.006337092198571342e-01,9.605770921985898325e-02,-8.012283687945378000e-03,-7.033253191489315104e-02,-8.597931205673493837e-02
6.322088652482643623e-02,1.046628723404242761e-01,1.002537056737594495e-01,4.083510638281063684e-04,-6.611673758865226069e-02,-8.578689716311793667e-02
6.318862411347889174e-02,1.086920354609918621e-01,1.086080354609938875e-01,8.820652482267370142e-03,-6.607594326241113258e-02,-7.726948226950097753e-02
6.732302836879820729e-02,1.085461985815592417e-01,1.169623652482278953e-01,1.307462056737353565e-02,-7.019348226950310188e-02,-7.707706737588397583e-02
6.728243262411731651e-02,1.167336950354599251e-01,1.253083617021285567e-01,1.732025531914725691e-02,-7.431935460992840359e-02,-7.690131914893363896e-02
7.140850354610286943e-02,1.249211914893606085e-01,1.336626914893625784e-01,2.156589007092009000e-02,-6.179522695035376267e-02,-7.255890425531644206e-02
6.720957446808888125e-02,1.289420212765949314e-01,1.378503546099296984e-01,2.581152482269292309e-02,-5.760443262411286264e-02,-7.239148936169945148e-02
6.716897872340799047e-02,1.371295177304956148e-01,1.462046843971637200e-01,3.005715957446575270e-02,-5.341363829787196954e-02,-7.638240780141598851e-02
6.712838297872709969e-02,1.369836808510629944e-01,1.503923475177312841e-01,3.846112765957257484e-02,-5.338951063829750626e-02,-7.621499290779899793e-02
6.708778723404620892e-02,1.451711773049636778e-01,1.629133439716317078e-01,4.269842907801207205e-02,-4.919871631205661316e-02,-6.772257801418202217e-02
6.288052482269845811e-02,1.491920070921974872e-01,1.754343404255326033e-01,5.109406382978555483e-02,-3.667458865248197225e-02,-5.506349645389818637e-02
6.283992907801756733e-02,1.532128368794317408e-01,1.837970035460999296e-01,5.949803191489148185e-02,-2.830879432624042874e-02,-5.072941489361476597e-02
5.864100000000357915e-02,1.614086666666657566e-01,1.921680000000006161e-01,6.791866666666496188e-02,-2.825966666666596822e-02,-5.472033333333085892e-02
5.859207092198936290e-02,1.654294964538995660e-01,2.005389964539012748e-01,7.216430141843779844e-02,-1.987720567375864805e-02,-5.036958510638077369e-02
6.271814184397490888e-02,1.736169929078002494e-01,2.047349929078021991e-01,8.056826950354462058e-02,-1.150307801418377213e-02,-5.019383687943043681e-02
6.267754609929401810e-02,1.776378226950345030e-01,2.172559893617026228e-01,8.897223758865054066e-02,-1.145395035460931160e-02,-3.335142198581350637e-02
5.847028368794669750e-02,1.816503191489349800e-01,2.297853191489368507e-01,9.737620567375736280e-02,-7.246489361701753673e-03,-2.899234042552963422e-02
5.426302127659893976e-02,1.856628156028359011e-01,2.298063156028375409e-01,9.745517375886376954e-02,-3.039028368794195745e-03,-2.879992553191263946e-02
5.422242553191804898e-02,1.813419787234030744e-01,2.298273120567382310e-01,1.016924751773032598e-01,-7.164900709219497454e-03,-2.863251063829564194e-02
5.000682978723695882e-02,1.853544751773039956e-01,2.340149751773058229e-01,1.017547765957430017e-01,5.359226950355143460e-03,-2.014842907801200900e-02
4.995790070922273562e-02,1.893753049645382491e-01,2.382109716312062753e-01,1.101587446808498238e-01,2.205835460992954661e-02,-7.489347517728169729e-03
4.575897163120875438e-02,1.808961347517718810e-01,2.382403014184403256e-01,1.143960460992893141e-01,2.209081560283734230e-02,1.019734042555463932e-03
4.155170921986099664e-02,1.807502978723393716e-01,2.341029645390079184e-01,1.144666808510623884e-01,2.629827659574492105e-02,5.362148936172220215e-03
3.317778014184680213e-02,1.681044609929070177e-01,2.299739609929083994e-01,1.145456489361687813e-01,1.801407092198652193e-02,5.554563829789214979e-03
2.896218439716615259e-02,1.637836241134741910e-01,2.258449574468089083e-01,1.146162836879418556e-01,1.805486524822765004e-02,5.738645390072877328e-03
3.308825531915169510e-02,1.553127872340415994e-01,2.217159539007098334e-01,1.105202517730485001e-01,2.642899290780163779e-02,5.906060283689874846e-03
2.888932624113771386e-02,1.468336170212756753e-01,2.175786170212770099e-01,1.064242198581542426e-01,3.063645390070919572e-02,1.440680851064017609e-02
2.469039716312328506e-02,1.300211134751764475e-01,2.051079468085112989e-01,1.065031879432606493e-01,3.485224822695097424e-02,2.290755673759047734e-02
2.048313475177596793e-02,1.173669432624103171e-01,1.884789432624120742e-01,9.408215602836687841e-02,3.071804255319145194e-02,1.890830496454104503e-02
2.045087234042841651e-02,1.047211063829779631e-01,1.760082730496459191e-01,8.999445744680684145e-02,2.241717021276638799e-02,1.490905319149116864e-02
1.624360992908065182e-02,8.790860283687873533e-02,1.593709361702133620e-01,8.589842553191348595e-02,2.244963120567418369e-02,1.924313475177504007e-02
1.203634751773333643e-02,7.942943262411281125e-02,1.343919326241141410e-01,7.346906028368638264e-02,1.832375886524888198e-02,1.107721631205873386e-02
3.662418439719145394e-03,5.844192907801337711e-02,1.094129290780149338e-01,6.103969503545927239e-02,1.003955319148959469e-02,1.126129787234239621e-02
-5.448439716286158224e-04,4.579609219858057911e-02,8.443392553191528260e-02,4.443532978723239990e-02,5.913680851064292976e-03,3.103712765959422415e-03
-5.854397163095031303e-04,3.731692198581465503e-02,7.194658865248292068e-02,4.032263120567237263e-02,5.946141843972088670e-03,-9.038723404237898607e-04
-6.260354609903904383e-04,2.883775177304873094e-02,5.945925177305010773e-02,2.787659929077859755e-02,1.803602836880122129e-03,-4.928124113473222878e-03
-6.582978723379435959e-04,2.452524822694968076e-02,4.698024822695107128e-02,1.543890070921815662e-02,-6.497269503545829994e-03,-8.935709219856435154e-03
3.484439716314709570e-03,2.437107801418372799e-02,4.284291134751823382e-02,1.551786879432455989e-02,-6.456475177304701885e-03,-8.768294326239437636e-03
7.635510638300247593e-03,1.173357446808434568e-02,3.038057446808542506e-02,3.096836879431671963e-03,-1.474068085106307324e-02,-1.276754609928887688e-02
7.611581560286026851e-03,1.159607092198505773e-02,1.790990425531972796e-02,-9.332528368795436555e-03,-1.886655319148926313e-02,-1.676679787233875327e-02
1.176265248227201417e-02,7.300234042552686264e-03,9.614234042553791368e-03,-1.757856028368944695e-02,-2.296742553191456065e-02,-2.492438297872172706e-02
1.590539007092422324e-02,1.133773049645317443e-02,9.651897163121158502e-03,-1.749125886524971474e-02,-2.708496453900652995e-02,-2.059030141843829972e-02
1.171479432624357268e-02,7.041893617020802965e-03,5.522893617021653462e-03,-2.157895744680973782e-02,-4.371083687943200929e-02,-2.458955319148773203e-02
1.586586524822911765e-02,2.746056737587987406e-03,1.402223404255924927e-03,-2.566665602836976784e-02,-4.782837588652486677e-02,-3.692213829787091561e-02
2.001693617021510496e-02,2.616886524822045756e-03,-2.718446808510247264e-03,-2.975435460993067910e-02,-5.612091489361659830e-02,-3.676305673758725051e-02
1.583467375886734446e-02,6.646049645389631721e-03,-6.847450354609308648e-03,-2.967538652482427930e-02,-4.776345390070927538e-02,-5.328730851063685769e-02
1.997741134751999589e-02,2.350212765956816163e-03,-6.809787234041941514e-03,-2.543808510638389045e-02,-3.941432624113439670e-02,-4.897822695035299045e-02
1.995348226950577342e-02,6.396042553191080837e-03,-6.763790780141239363e-03,-2.119245035461105736e-02,-3.939019858155993342e-02,-4.050247872340269339e-02
1.993788652482488682e-02,6.275205673758471603e-03,-2.551127659574107826e-03,-2.528014893617108391e-02,-4.769940425531921796e-02,-4.035173049645236071e-02
2.825562411347730396e-02,1.031270212765895977e-02,1.653202127660134083e-03,-2.520951418439801306e-02,-4.350027659574410427e-02,-4.020098226950202802e-02
2.824836170212974978e-02,6.016865248226588303e-03,1.699198581560835801e-03,-2.929721276595893126e-02,-5.179281560283672398e-02,-4.838356737588500600e-02
2.407443262411532170e-02,5.896028368793979069e-03,-2.421471631205336823e-03,-3.337657801418562192e-02,-6.008535460992845550e-02,-6.489115248226795529e-02
1.990050354610133770e-02,9.941858156027799653e-03,1.791191489362238369e-03,-3.328094326241255729e-02,-5.169456028368780293e-02,-5.222373758865121729e-02
2.821824113475375484e-02,9.821021276595190419e-03,1.017052127659624425e-02,-2.486030851063907032e-02,-5.163709929078000305e-02,-4.373132269503425540e-02
2.820264539007286825e-02,9.691851063829193258e-03,1.020818439716360965e-02,-2.893967375886665611e-02,-6.408797163120570628e-02,-5.608057446808367014e-02
2.818704964539198166e-02,9.571014184396584024e-03,1.025418085106431093e-02,-2.884403900709358454e-02,-7.236384397163077298e-02,-6.008815957446687894e-02
2.818812056737775990e-02,9.450177304963974789e-03,1.030017730496501221e-02,-2.458173758865319497e-02,-6.815638297872321505e-02,-5.992907801418322078e-02
3.234752482269663554e-02,1.349600709219823946e-02,1.867117375886568481e-02,-1.616110283688060312e-02,-5.563225531914857414e-02,-5.561999645389935354e-02
2.816526241134931913e-02,5.033503546098994086e-03,2.288383687943281591e-02,-1.607380141844086396e-02,-5.560812765957411086e-02,-5.547758156028235327e-02
3.230800000000152994e-02,4.912666666666384852e-03,2.293816666666684961e-02,-1.598650000000113175e-02,-5.975066666666607740e-02,-5.116849999999892318e-02
3.230073758865397576e-02,1.312516312056707934e-02,2.298416312056755090e-02,-1.590753191489472501e-02,-6.388487234042559970e-02,-5.102608510638192985e-02
3.230180851063975400e-02,1.717099290780089993e-02,2.303015957446825218e-02,-1.999523049645475503e-02,-5.968574468085048601e-02,-5.505033687943136633e-02
4.062787943262550355e-02,1.705848936170162311e-02,3.556782269503579869e-02,-7.416262411348172393e-03,-4.298661702127608286e-02,-4.241625531914796493e-02
3.644561702127818714e-02,1.693765248226901388e-02,3.145548581560295848e-02,-3.162294326242006889e-03,-4.712082269503560517e-02,-5.059884042553093597e-02
3.227168794326375906e-02,8.475148936169768499e-03,2.735148226950389824e-02,-1.139999290780179669e-02,-6.374669503546107063e-02,-5.876475886524724912e-02
2.809775886524977506e-02,1.668764539007046299e-02,2.739747872340459953e-02,-1.131269148936206101e-02,-6.370590070921994252e-02,-5.444734397163004253e-02
2.391549645390201456e-02,1.655847517730452134e-02,2.743514184397196840e-02,-1.125039007092232431e-02,-5.950677304964482883e-02,-5.431326241134637467e-02
2.389990070922112797e-02,1.227930496453881470e-02,2.330613829787245989e-02,-1.117975531914925519e-02,-5.533264539007060057e-02,-5.418751418439604617e-02
1.971763829787381156e-02,1.215846808510620547e-02,2.332713475177316392e-02,-1.112578723404285264e-02,-5.119185106382970890e-02,-4.990343262411262026e-02
1.553537588652605279e-02,7.862631205673389911e-03,2.333146453900719619e-02,-1.108848581560311665e-02,-5.121772340425524705e-02,-4.563601773049541510e-02
1.136978014184539948e-02,7.733460992907392750e-03,2.750246099290810931e-02,-2.709517730497188609e-03,-4.289359574468036562e-02,-3.303526950354535724e-02
3.037517730497875726e-03,-4.904042553191628739e-03,3.581512411347544805e-02,9.819450354609390863e-03,-2.626113475177263221e-02,-1.628452127659508683e-02
3.038588652483655700e-03,-1.339987943262466175e-02,4.825278723404299169e-02,4.314008510638234206e-02,6.996326241135046586e-03,1.711622695035556682e-02
-5.310340425530534619e-03,-3.025404964539055164e-02,5.649045035461033176e-02,6.393571985815511838e-02,4.857045390070980490e-02,5.049197517730577567e-02
-9.500936170211629270e-03,-5.962488652482283991e-02,7.302811347517763896e-02,9.303968794326163139e-02,9.014458156028368196e-02,9.219272340425596624e-02
-1.367486524822605735e-02,-7.651239007092250355e-02,9.788244326241159199e-02,1.304686560283685737e-01,1.358853758865248562e-01,1.297268049645396992e-01
-5.340460992906529564e-03,-7.259156028368823899e-02,1.560617730496454136e-01,2.012226241134744964e-01,2.024345035460990982e-01,1.839192198581567350e-01
7.185609929078984673e-03,-4.367906382978739566e-02,2.768077695035463526e-01,3.053599255319145445e-01,2.940002978723403326e-01,2.589783014184405818e-01
3.045014184398335544e-03,-3.143323404255360387e-02,4.392870992907804695e-01,4.720472269503536711e-01,4.355994255319147190e-01,3.757290496453909445e-01
-3.857058156028284751e-02,-7.332073758865273461e-02,6.309247624113476505e-01,6.928761950354608290e-01,6.521818865248226738e-01,5.549381312056743676e-01
-8.848617730496355360e-02,-1.401665744680855585e-01,7.934124255319150443e-01,8.928718297872336729e-01,8.645893475177307552e-01,7.216222127659581709e-01
-1.425184397163111460e-01,-1.777957446808511310e-01,9.517750886524822818e-01,1.080375797872340060e+00,1.043646808510638291e+00,8.674646276595751049e-01
-1.840423687943252007e-01,-2.028665815602841149e-01,1.130987751773049776e+00,1.280379765957446292e+00,1.218529269503545898e+00,1.000798709219858695e+00
-2.005912978723398132e-01,-2.070957517730498409e-01,1.314375414893617311e+00,1.463717067375886138e+00,1.389253397163120241e+00,1.117466124113475789e+00
-2.588402269503538022e-01,-2.488415886524822929e-01,1.481088078014184628e+00,1.647062702127658929e+00,1.572494191489361759e+00,1.242475205673759353e+00
-3.671058226950347780e-01,-3.864624255319150659e-01,1.647775741134752003e+00,1.872066670212765516e+00,1.805718319148936324e+00,1.400817620567376576e+00
-5.420547517730488485e-01,-6.199249290780144417e-01,1.722780070921986040e+00,2.101220638297871979e+00,2.084750780141844118e+00,1.588301702127660198e+00
-7.045286808510631271e-01,-8.492040992907802233e-01,1.689459400709219850e+00,2.276224606382978521e+00,2.313808241134751587e+00,1.754969117021276892e+00
-8.336942765957442436e-01,-1.057641602836879580e+00,1.556163730496453956e+00,2.397095241134751475e+00,2.488757368794326741e+00,1.859194865248227302e+00
-9.670432056737584547e-01,-1.245245773049645566e+00,1.356218060283687965e+00,2.513832542553191107e+00,2.676248163120567458e+00,1.959303946808510943e+00
-1.117075468085105827e+00,-1.445358276595744895e+00,1.052114056737588621e+00,2.601419843971630730e+00,2.855413957446808926e+00,2.063604695035461400e+00
-1.221282730496453306e+00,-1.632979113475177435e+00,6.980017198581562887e-01,2.547357145390070965e+00,2.872104751773049802e+00,2.067930443262411710e+00
-1.096314992907800878e+00,-1.599758283687943372e+00,3.855727163120569179e-01,2.155794446808510401e+00,2.372153879432624457e+00,1.747256191489362065e+00
-8.546889219858150311e-01,-1.387379120567376001e+00,1.064687127659575128e-01,1.505890081560283367e+00,1.555536340425532016e+00,1.255756939716312415e+00
-6.922295177304957914e-01,-1.154166624113475148e+00,-3.929362411347526313e-02,1.089327382978723335e+00,1.105585468085106271e+00,9.642576879432628312e-01
-5.797867801418435940e-01,-9.709541276595744508e-01,-1.683976276595743338e-01,8.144313510638298004e-01,8.139512624113479644e-01,7.477501028368797042e-01
-4.673357092198579532e-01,-7.919082978723406274e-01,-3.099932978723402011e-01,5.395436524822695423e-01,5.514753900709221668e-01,5.229008510638301077e-01
-3.132096382978720728e-01,-5.420291347517731673e-01,-3.515973014184398115e-01,2.604809539007091890e-01,2.889995177304964802e-01,2.730432659574468790e-01
-1.549169007092197348e-01,-3.004749716312057894e-01,-3.181929716312054679e-01,2.309325531914910995e-02,6.402364539007132649e-02,7.736901418439726119e-02
-3.829916312056725475e-02,-1.214208085106383700e-01,-2.347969751773050506e-01,-1.143027765957446706e-01,-9.845222695035474314e-02,-6.415523758865235293e-02
1.582690780141855075e-02,-3.819997872340416545e-02,-1.722259787234043660e-01,-1.641904751773047566e-01,-1.650864326241133773e-01,-1.306711560283684570e-01
3.245297872340427436e-02,-4.987482269503559773e-03,-1.596549822695034759e-01,-1.849115070921989457e-01,-1.984039716312054613e-01,-1.680204078014182201e-01
5.324571631205686495e-02,2.823334751773032281e-02,-1.637589858156029698e-01,-2.098075390070920088e-01,-2.275548439716311155e-01,-2.012113262411348580e-01
6.568845390070948698e-02,4.892917730496451623e-02,-1.678713226950353798e-01,-2.263619042553188798e-01,-2.566973829787234651e-01,-2.218855780141842371e-01
9.060619148936184530e-02,7.785834042553202439e-02,-1.595253262411346906e-01,-2.428996028368790860e-01,-2.732649219858155898e-01,-2.383181631205671946e-01
1.029405957446806880e-01,8.991250354609914286e-02,-1.680709964539006396e-01,-2.678539680851063642e-01,-3.022657943262412328e-01,-2.629507482269505259e-01
1.111333333333331119e-01,9.773333333333317219e-02,-1.727000000000001312e-01,-2.805666666666667974e-01,-3.022833333333334593e-01,-2.626666666666668815e-01
1.195999999999997482e-01,1.101333333333333608e-01,-1.522749999999999937e-01,-2.685749999999999527e-01,-2.902833333333332821e-01,-2.462416666666664977e-01
1.200833333333330838e-01,1.313500000000001888e-01,-1.231749999999998818e-01,-2.442833333333329360e-01,-2.706083333333335617e-01,-2.262916666666668075e-01
1.127416666666664485e-01,1.281749999999999556e-01,-1.185166666666667840e-01,-2.369083333333334151e-01,-2.685249999999995696e-01,-2.281166666666668008e-01
1.059749999999998055e-01,1.172416666666668827e-01,-1.174083333333334478e-01,-2.339833333333336540e-01,-2.550416666666662779e-01,-2.268583333333332730e-01
9.552500000000006819e-02,9.429999999999985616e-02,-1.280166666666665010e-01,-2.352916666666669820e-01,-2.632166666666669874e-01,-2.264583333333334836e-01
8.938333333333343955e-02,8.843333333333322499e-02,-1.298166666666667191e-01,-2.282166666666665678e-01,-2.633083333333329779e-01,-2.181083333333333207e-01
8.292500000000012361e-02,9.089166666666656513e-02,-1.273333333333333817e-01,-2.206833333333337310e-01,-2.584166666666667944e-01,-2.133916666666666739e-01
8.411666666666679781e-02,1.052500000000000657e-01,-1.248750000000000554e-01,-2.204916666666670577e-01,-2.517583333333330287e-01,-2.156500000000000083e-01
8.464166666666679550e-02,1.063500000000000556e-01,-1.268999999999998185e-01,-2.278583333333332461e-01,-2.602166666666667627e-01,-2.207333333333335590e-01
8.470833333333346871e-02,1.068583333333334023e-01,-1.253083333333331606e-01,-2.393000000000000960e-01,-2.680333333333329571e-01,-2.292000000000001814e-01
8.874999999999989841e-02,1.112249999999998240e-01,-1.283083333333333576e-01,-2.384333333333334137e-01,-2.716416666666669477e-01,-2.374083333333334989e-01
8.865833333333322797e-02,1.154666666666667035e-01,-1.316333333333335742e-01,-2.377833333333334298e-01,-2.712166666666669390e-01,-2.330583333333332841e-01
9.278333333333342592e-02,1.238166666666666860e-01,-1.311083333333335765e-01,-2.373583333333334211e-01,-2.709083333333336396e-01,-2.370500000000001772e-01
9.274166666666676384e-02,1.279916666666668923e-01,-1.391500000000001902e-01,-2.495833333333336013e-01,-2.790333333333331334e-01,-2.452500000000001346e-01
9.267500000000010452e-02,1.363083333333335312e-01,-1.390000000000002067e-01,-2.452583333333329396e-01,-2.705583333333336227e-01,-2.326333333333333031e-01
9.674999999999986389e-02,1.362583333333335089e-01,-1.389333333333335196e-01,-2.451583333333329506e-01,-2.704583333333336337e-01,-2.241916666666666502e-01
1.008250000000000673e-01,1.445250000000001533e-01,-1.513916666666665911e-01,-2.575499999999997791e-01,-2.786833333333331164e-01,-2.407416666666666039e-01
1.007250000000000645e-01,1.527833333333334653e-01,-1.513666666666665939e-01,-2.699499999999999678e-01,-2.868916666666668780e-01,-2.406166666666665899e-01
1.047833333333331729e-01,1.527000000000001134e-01,-1.597083333333332300e-01,-2.782083333333337238e-01,-2.992833333333337342e-01,-2.529916666666667813e-01
1.046666666666665052e-01,1.609416666666667606e-01,-1.638916666666667687e-01,-2.823083333333334943e-01,-3.116416666666663726e-01,-2.611833333333334339e-01
1.128833333333331412e-01,1.733416666666665051e-01,-1.681083333333332208e-01,-2.989166666666667749e-01,-3.239999999999998437e-01,-2.652333333333331544e-01
1.127833333333331384e-01,1.857416666666666938e-01,-1.723083333333334244e-01,-3.071833333333329197e-01,-3.280333333333329549e-01,-2.609416666666667384e-01
1.085166666666667057e-01,1.898166666666669111e-01,-1.765249999999998487e-01,-3.196333333333331028e-01,-3.320833333333336190e-01,-2.649916666666665144e-01
1.125916666666664651e-01,1.980583333333335305e-01,-1.890833333333333532e-01,-3.237583333333328706e-01,-3.361333333333333950e-01,-2.773666666666667058e-01
1.083250000000000463e-01,2.062916666666668453e-01,-2.058249999999999802e-01,-3.403833333333337041e-01,-3.443583333333328778e-01,-2.897583333333335065e-01
1.165500000000000147e-01,2.186916666666665621e-01,-2.058999999999999719e-01,-3.528583333333329963e-01,-3.484500000000002040e-01,-2.938166666666666149e-01
1.289499999999997315e-01,2.352583333333331805e-01,-2.059916666666666285e-01,-3.611666666666667469e-01,-3.608666666666670575e-01,-2.937249999999999583e-01
1.330083333333337281e-01,2.476666666666666738e-01,-2.102416666666668266e-01,-3.694749999999996093e-01,-3.732499999999996931e-01,-2.977666666666668460e-01
1.329083333333337391e-01,2.600666666666668903e-01,-2.186666666666668146e-01,-3.861166666666662195e-01,-3.898083333333329792e-01,-3.059750000000001635e-01
1.244749999999999746e-01,2.682916666666668171e-01,-2.395916666666665085e-01,-4.110916666666665775e-01,-4.022249999999998327e-01,-3.183666666666665201e-01
1.285333333333330830e-01,2.806749999999998968e-01,-2.522083333333333677e-01,-4.194250000000003253e-01,-4.021666666666664502e-01,-3.182916666666665284e-01
1.367833333333334789e-01,3.014000000000000568e-01,-2.648166666666668667e-01,-4.485916666666662223e-01,-4.229250000000003840e-01,-3.432166666666668919e-01
1.408749999999999170e-01,3.221333333333335491e-01,-2.774083333333332568e-01,-4.652500000000003855e-01,-4.395000000000003348e-01,-3.514583333333335391e-01
1.449583333333330226e-01,3.303666666666668084e-01,-2.900250000000000883e-01,-4.819083333333336605e-01,-4.560750000000002857e-01,-3.597083333333335187e-01
1.490333333333336563e-01,3.510833333333331918e-01,-3.026583333333331960e-01,-5.152500000000002078e-01,-4.643333333333331536e-01,-3.679833333333334400e-01
1.531083333333334295e-01,3.634583333333333832e-01,-3.194666666666668986e-01,-5.402749999999996167e-01,-4.809583333333330990e-01,-3.721166666666665401e-01
1.571916666666665352e-01,3.800000000000000044e-01,-3.446000000000001284e-01,-5.611250000000002069e-01,-4.850750000000004225e-01,-3.762500000000000844e-01
1.612666666666662807e-01,3.965333333333332932e-01,-3.488999999999998769e-01,-5.819583333333332442e-01,-5.016416666666669855e-01,-3.803499999999998549e-01
1.778416666666662316e-01,4.255750000000000366e-01,-3.531916666666667926e-01,-6.069500000000003226e-01,-5.306749999999995637e-01,-3.927416666666667111e-01
1.819083333333335606e-01,4.379416666666668956e-01,-3.741666666666664809e-01,-6.402916666666668144e-01,-5.597249999999996950e-01,-4.093249999999999944e-01
1.776333333333328934e-01,4.461250000000002158e-01,-3.951499999999999457e-01,-6.611583333333331813e-01,-5.554833333333332179e-01,-4.175833333333333064e-01
1.858499999999999874e-01,4.584666666666665780e-01,-4.036249999999999560e-01,-6.820083333333328834e-01,-5.721083333333332188e-01,-4.175166666666666471e-01
1.982500000000001483e-01,4.791666666666667407e-01,-4.162416666666667875e-01,-7.069999999999999618e-01,-5.928749999999995968e-01,-4.257499999999999063e-01
2.023333333333332540e-01,4.873583333333333933e-01,-4.163833333333334386e-01,-7.195000000000001394e-01,-5.885999999999997900e-01,-4.214750000000001551e-01
2.064083333333330272e-01,4.955416666666666581e-01,-4.123583333333332157e-01,-7.278333333333329991e-01,-5.842583333333334350e-01,-4.130250000000001975e-01
2.146500000000000907e-01,4.995416666666668837e-01,-4.125083333333332547e-01,-7.361666666666667469e-01,-5.841333333333333933e-01,-4.087500000000000022e-01
2.228749999999996290e-01,5.035416666666666652e-01,-4.043333333333332669e-01,-7.361833333333334117e-01,-5.757333333333329861e-01,-3.920000000000000706e-01
2.227916666666663048e-01,4.992166666666668640e-01,-3.920000000000001816e-01,-7.320333333333336467e-01,-5.714999999999998970e-01,-3.835833333333333872e-01
2.226999999999996205e-01,4.948916666666666186e-01,-3.796750000000000402e-01,-7.195583333333335219e-01,-5.464500000000004354e-01,-3.668583333333334529e-01
2.226166666666662963e-01,4.863999999999999990e-01,-3.589999999999998748e-01,-7.029083333333335792e-01,-5.172666666666669855e-01,-3.459666666666666446e-01
2.267000000000002902e-01,4.779000000000000470e-01,-3.299916666666668497e-01,-6.779333333333331657e-01,-4.963999999999997303e-01,-3.250666666666665039e-01
2.266250000000002707e-01,4.652333333333332210e-01,-2.968249999999998945e-01,-6.487916666666664334e-01,-4.630166666666664654e-01,-2.958333333333335036e-01
2.223749999999996285e-01,4.483916666666666329e-01,-2.719999999999999640e-01,-6.154833333333331602e-01,-4.254250000000001641e-01,-2.749250000000000305e-01
2.139583333333334447e-01,4.273749999999997828e-01,-2.430083333333331874e-01,-5.821749999999999980e-01,-4.044916666666662497e-01,-2.665083333333334026e-01
1.972000000000001529e-01,3.980250000000000732e-01,-2.182083333333332820e-01,-5.363666666666665472e-01,-3.710749999999997106e-01,-2.497666666666667756e-01
1.762916666666662358e-01,3.645083333333331010e-01,-1.934000000000000163e-01,-4.822333333333336802e-01,-3.209916666666665641e-01,-2.205249999999999710e-01
1.678666666666667195e-01,3.434833333333334182e-01,-1.602583333333334747e-01,-4.322666666666662993e-01,-2.875750000000000250e-01,-1.912666666666665294e-01
1.594583333333329522e-01,3.141249999999999876e-01,-1.229166666666667157e-01,-3.822749999999998094e-01,-2.499666666666670312e-01,-1.703166666666668383e-01
1.468833333333336710e-01,2.889500000000000401e-01,-9.385833333333326589e-02,-3.238999999999995771e-01,-1.998166666666663094e-01,-1.410166666666667068e-01
1.301416666666670718e-01,2.595999999999999419e-01,-6.056666666666671306e-02,-2.696333333333332805e-01,-1.662833333333331165e-01,-1.199916666666665660e-01
1.175583333333331121e-01,2.261000000000000787e-01,-3.977499999999990071e-02,-2.278666666666663287e-01,-1.535583333333329081e-01,-1.197833333333332279e-01
1.007749999999998369e-01,1.925833333333335229e-01,-2.315833333333329122e-02,-1.902583333333333626e-01,-1.325083333333332281e-01,-1.154250000000001247e-01
8.813333333333343844e-02,1.673999999999998267e-01,-6.491666666666680297e-03,-1.526000000000003742e-01,-1.072416666666670820e-01,-1.026833333333332932e-01
7.961666666666679382e-02,1.421916666666666051e-01,1.841666666666623431e-03,-1.232583333333336084e-01,-8.612499999999982669e-02,-9.407499999999997808e-02
6.687499999999994837e-02,1.169416666666666937e-01,1.013333333333325814e-02,-9.394166666666681209e-02,-7.751666666666695571e-02,-8.128333333333313815e-02
5.410833333333310569e-02,9.584166666666654733e-02,1.425000000000013062e-02,-7.295833333333288928e-02,-6.471666666666678336e-02,-7.681666666666671361e-02
5.799999999999998213e-02,8.719166666666655630e-02,2.663333333333319647e-02,-5.619999999999961832e-02,-4.362500000000042039e-02,-6.406666666666652188e-02
6.190833333333352340e-02,7.850833333333324948e-02,3.475833333333316899e-02,-3.948333333333300943e-02,-3.504166666666665847e-02,-5.967500000000010296e-02
4.918333333333334279e-02,6.568333333333351010e-02,3.032500000000007065e-02,-3.115000000000014979e-02,-3.064166666666689326e-02,-5.945833333333343240e-02
4.483333333333313492e-02,5.702500000000018665e-02,3.005000000000006971e-02,-2.697500000000038756e-02,-3.874166666666641751e-02,-5.507499999999988793e-02
4.050000000000004291e-02,4.836666666666644687e-02,2.142500000000009674e-02,-2.700833333333371722e-02,-4.274166666666707332e-02,-6.737500000000007372e-02
4.039166666666670763e-02,3.972499999999981601e-02,1.691666666666655910e-02,-3.127500000000014990e-02,-5.099166666666660186e-02,-7.975833333333313957e-02
4.033333333333337378e-02,3.525000000000005906e-02,1.654166666666655877e-02,-3.560833333333324885e-02,-6.349166666666677949e-02,-8.804166666666687902e-02
4.028333333333337235e-02,3.494166666666673193e-02,1.199166666666679447e-02,-3.162500000000015299e-02,-8.018333333333339807e-02,-9.219999999999997642e-02
4.439999999999980074e-02,3.879999999999982074e-02,1.990833333333343058e-02,-3.600833333333324643e-02,-7.607500000000030904e-02,-9.223333333333330608e-02
4.851666666666668015e-02,3.431666666666671750e-02,1.945833333333343157e-02,-3.624999999999991424e-02,-5.950833333333369057e-02,-8.818333333333355784e-02
4.015000000000003982e-02,2.569166666666675147e-02,1.485833333333322522e-02,-3.649166666666658204e-02,-4.710833333333351580e-02,-8.413333333333335162e-02
4.013333333333337499e-02,2.124999999999988010e-02,6.116666666666588023e-03,-3.256666666666681309e-02,-4.722500000000017656e-02,-7.587500000000005351e-02
3.597499999999983350e-02,2.515833333333340749e-02,1.541666666666826474e-03,-3.697499999999991072e-02,-5.985000000000034737e-02,-8.427500000000001656e-02
3.597499999999983350e-02,2.073333333333321482e-02,9.475000000000127418e-03,-3.723333333333324335e-02,-6.412500000000011247e-02,-8.017499999999980198e-02
4.015833333333337224e-02,2.465833333333343480e-02,9.058333333333458068e-03,-3.749166666666657599e-02,-6.005000000000034616e-02,-8.024999999999980760e-02
4.015833333333337224e-02,2.025833333333323938e-02,3.083333333334884602e-04,-4.191666666666634539e-02,-6.014166666666700967e-02,-8.866666666666689345e-02
4.017500000000003707e-02,2.003333333333323640e-02,-1.083333333331808895e-04,-4.216666666666634561e-02,-6.438333333333344510e-02,-8.874166666666688519e-02
3.604166666666649976e-02,1.982499999999989826e-02,-5.166666666665143542e-04,-4.242499999999967825e-02,-6.033333333333368298e-02,-8.885833333333355288e-02
4.025000000000004269e-02,2.382500000000009610e-02,7.433333333333454890e-03,-2.601666666666640343e-02,-5.214166666666660704e-02,-7.650000000000004019e-02
4.030000000000004412e-02,2.368333333333343116e-02,7.083333333333453538e-03,-3.043333333333371818e-02,-5.228333333333327893e-02,-7.248333333333316364e-02
4.036666666666671038e-02,2.358333333333342829e-02,-1.583333333333179771e-03,-3.485833333333348411e-02,-5.659166666666637369e-02,-8.516666666666668217e-02
4.464999999999980790e-02,2.365833333333343391e-02,-1.808333333333181012e-03,-3.929166666666657898e-02,-5.264999999999994684e-02,-8.963333333333355080e-02
4.066666666666670510e-02,2.395833333333344251e-02,-1.749999999999847164e-03,-3.525000000000014927e-02,-4.876666666666684691e-02,-8.171666666666646539e-02
3.656666666666649745e-02,2.004166666666656882e-02,-1.466666666666512076e-03,-3.506666666666681531e-02,-4.873333333333350337e-02,-8.188333333333314146e-02
3.634166666666650142e-02,1.987499999999989275e-02,2.858333333333249252e-03,-3.457500000000015422e-02,-4.810000000000017040e-02,-7.735833333333337614e-02
3.984166666666670575e-02,1.914999999999988933e-02,2.583333333333248313e-03,-3.383333333333349291e-02,-5.497499999999970466e-02,-8.870833333333355553e-02
3.860833333333337641e-02,2.198333333333341022e-02,1.724999999999915837e-03,-2.860000000000039247e-02,-4.829166666666660085e-02,-8.229166666666667962e-02
3.264999999999983193e-02,2.011666666666675485e-02,7.499999999991714683e-05,-2.737500000000039208e-02,-4.479999999999993709e-02,-8.320833333333355064e-02
2.632500000000007057e-02,1.361666666666654091e-02,-2.350000000000081191e-03,-2.619166666666705723e-02,-4.075833333333326453e-02,-7.515833333333335475e-02
2.424166666666673770e-02,2.641666666666570018e-03,-5.075000000000081182e-03,-2.526666666666705849e-02,-4.109166666666636686e-02,-7.123333333333334294e-02
2.273333333333340395e-02,4.525000000000126144e-03,-7.783333333333414608e-03,-2.511666666666705766e-02,-3.451666666666659833e-02,-6.413333333333313957e-02
1.776666666666653141e-02,2.983333333333476611e-03,-1.444166666666651250e-02,-2.591666666666705976e-02,-3.383333333333326393e-02,-6.675833333333333619e-02
2.168333333333340510e-02,2.125000000000154543e-03,-2.059166666666671988e-02,-2.707500000000039042e-02,-3.418333333333326007e-02,-6.630833333333334412e-02
2.591666666666650118e-02,5.891666666666572905e-03,-1.370000000000008364e-02,-2.391666666666640573e-02,-2.643333333333373891e-02,-5.804166666666671359e-02
1.766666666666653202e-02,1.533333333333483650e-03,-1.474166666666675007e-02,-2.468333333333307122e-02,-2.274999999999975653e-02,-5.403333333333316946e-02
1.770833333333319756e-02,1.458333333333478032e-03,-1.957499999999984253e-02,-2.519166666666640408e-02,-2.725833333333374173e-02,-5.834166666666670831e-02
1.774999999999986311e-02,-2.758333333333390369e-03,-2.412500000000004918e-02,-2.970000000000038581e-02,-3.586666666666659536e-02,-6.266666666666646790e-02
1.783333333333319420e-02,-2.766666666666736663e-03,-2.435000000000005216e-02,-2.575833333333307079e-02,-4.024166666666635639e-02,-6.697500000000000675e-02
1.793333333333319707e-02,-2.716666666666728291e-03,-2.448333333333338468e-02,-2.592499999999973298e-02,-4.039999999999968616e-02,-6.712500000000000411e-02
2.220000000000006690e-02,-2.658333333333387505e-03,-2.041666666666651364e-02,-2.608333333333306969e-02,-5.307499999999987228e-02,-6.730000000000001259e-02
1.814166666666652827e-02,-2.600000000000074474e-03,-2.466666666666671864e-02,-3.041666666666705682e-02,-4.910000000000010190e-02,-7.165833333333354593e-02
1.825833333333319250e-02,1.633333333333444881e-03,-2.057499999999984341e-02,-3.057500000000039006e-02,-4.094166666666636256e-02,-7.184166666666688683e-02
1.838333333333318914e-02,1.716666666666769037e-03,-2.063333333333317726e-02,-2.654999999999974047e-02,-3.275833333333350028e-02,-6.784166666666667511e-02
1.434166666666676117e-02,-2.366666666666780716e-03,-2.484166666666671672e-02,-2.667499999999974059e-02,-3.288333333333350039e-02,-6.383333333333313098e-02
1.445833333333342886e-02,-6.449999999999872502e-03,-2.070833333333317594e-02,-2.679999999999973723e-02,-4.550000000000034572e-02,-6.396666666666646350e-02
1.873333333333319223e-02,-6.366666666666548346e-03,-2.074999999999984496e-02,-2.691666666666640145e-02,-4.146666666666636025e-02,-6.827500000000000235e-02
1.884166666666652751e-02,-2.116666666666766616e-03,-2.079166666666651050e-02,-2.704166666666640156e-02,-3.328333333333349797e-02,-6.425833333333313968e-02
1.479166666666676538e-02,-6.208333333333204695e-03,-2.083333333333317605e-02,-3.133333333333371967e-02,-3.760833333333327144e-02,-6.442499999999980187e-02
1.490000000000009719e-02,-6.133333333333199078e-03,-2.086666666666650918e-02,-2.728333333333306937e-02,-2.944166666666707052e-02,-5.624999999999983485e-02
1.084166666666655683e-02,-1.022500000000008125e-02,-2.505000000000005139e-02,-2.739166666666640465e-02,-3.792499999999993099e-02,-6.056666666666671306e-02
1.094999999999989038e-02,-1.014166666666674321e-02,-2.090833333333317820e-02,-3.165833333333371857e-02,-4.640833333333367616e-02,-6.070833333333337800e-02
1.106666666666655634e-02,-5.891666666666545149e-03,-2.091666666666651062e-02,-3.175833333333372144e-02,-4.238333333333302311e-02,-6.084166666666671053e-02
7.008333333333461798e-03,-9.991666666666745855e-03,-2.093333333333317545e-02,-3.602500000000015412e-02,-4.668333333333368057e-02,-6.513333333333314046e-02
1.545000000000009907e-02,-9.916666666666754115e-03,-2.093333333333317545e-02,-3.195833333333372023e-02,-5.514166666666654032e-02,-6.524999999999980815e-02
1.972499999999986070e-02,-5.666666666666542174e-03,-1.676666666666674563e-02,-3.622500000000015291e-02,-5.110833333333343609e-02,-6.955833333333334700e-02
1.568333333333343099e-02,-9.733333333333413218e-03,-1.675000000000008080e-02,-3.215000000000038660e-02,-4.705833333333367396e-02,-6.970000000000001195e-02
1.580833333333343110e-02,-9.633333333333410353e-03,-1.671666666666674766e-02,-2.805833333333306728e-02,-4.299166666666635883e-02,-6.564999999999980573e-02
1.593333333333343121e-02,-9.541666666666739904e-03,-1.667500000000007865e-02,-2.813333333333306596e-02,-4.726666666666701211e-02,-6.576666666666647343e-02
1.189166666666655915e-02,-9.450000000000083333e-03,-2.079999999999984292e-02,-3.655000000000014487e-02,-4.740000000000034464e-02,-6.589999999999981983e-02
1.200833333333322511e-02,-9.358333333333412885e-03,-2.074999999999984149e-02,-3.245833333333371373e-02,-5.581666666666655618e-02,-6.601666666666647365e-02
7.958333333333461254e-03,-5.108333333333214821e-03,-2.069999999999984353e-02,-3.669166666666680982e-02,-5.585833333333321826e-02,-6.613333333333314135e-02
8.066666666666793065e-03,-9.191666666666750696e-03,-1.648333333333341227e-02,-3.677500000000014785e-02,-6.843333333333340152e-02,-7.044166666666668020e-02
8.183333333333460760e-03,-1.326666666666651007e-02,-1.641666666666674601e-02,-3.685000000000014653e-02,-6.439166666666695793e-02,-7.475000000000021905e-02
-2.499999999984285626e-05,-1.316666666666652108e-02,-2.052499999999984198e-02,-4.109999999999990744e-02,-5.619999999999988199e-02,-7.490833333333354882e-02
1.000000000001572548e-04,-1.722500000000005971e-02,-2.461666666666671721e-02,-4.119166666666657789e-02,-6.051666666666631611e-02,-7.090833333333335098e-02
4.399999999999921335e-03,-2.127499999999982183e-02,-2.453333333333338265e-02,-4.127499999999990898e-02,-6.064166666666631622e-02,-7.107500000000001317e-02
8.700000000000127770e-03,-1.280833333333318558e-02,-1.610833333333341194e-02,-3.717500000000014543e-02,-4.824166666666702269e-02,-6.287500000000004197e-02
4.674999999999920539e-03,-1.685000000000005937e-02,-1.601666666666674496e-02,-3.724166666666681169e-02,-4.001666666666661015e-02,-6.717499999999981819e-02
1.314166666666655679e-02,-1.673333333333337780e-02,-1.175833333333320407e-02,-3.315000000000038055e-02,-3.600000000000018463e-02,-5.901666666666650907e-02
4.933333333333253176e-03,-1.661666666666672398e-02,-1.167499999999986951e-02,-2.905833333333306123e-02,-3.194166666666708315e-02,-5.501666666666674144e-02
9.000000000001558836e-04,-1.648333333333337758e-02,-1.574166666666674402e-02,-2.910833333333306266e-02,-3.199166666666708458e-02,-5.514166666666674155e-02
1.033333333333488410e-03,-2.469166666666668120e-02,-1.979166666666650962e-02,-3.748333333333347256e-02,-5.287500000000012329e-02,-6.775833333333314279e-02
5.341666666666584906e-03,-2.455833333333334867e-02,-1.967499999999984539e-02,-3.754166666666680641e-02,-5.301666666666678129e-02,-7.205833333333334922e-02
5.491666666666583999e-03,-2.024166666666647740e-02,-1.535833333333341301e-02,-3.760833333333347267e-02,-4.490833333333304339e-02,-6.805833333333313750e-02
1.466666666666822591e-03,-2.425000000000002154e-02,-1.938333333333317615e-02,-3.350000000000037670e-02,-4.090833333333327576e-02,-5.991666666666650709e-02
1.608333333333489268e-03,-1.992499999999981786e-02,-1.924166666666651121e-02,-2.936666666666639183e-02,-4.099999999999993927e-02,-6.009166666666650169e-02
5.924999999999919914e-03,-1.974166666666649084e-02,-1.904999999999984484e-02,-3.353333333333370636e-02,-4.942500000000035754e-02,-6.024166666666651293e-02
6.066666666666586591e-03,-1.956666666666648235e-02,-2.302500000000005237e-02,-3.770833333333347553e-02,-5.785833333333322004e-02,-6.871666666666648160e-02
6.199999999999919117e-03,-1.937499999999982292e-02,-1.866666666666651209e-02,-3.356666666666704296e-02,-5.376666666666678890e-02,-6.469166666666671672e-02
6.333333333333251644e-03,-1.500833333333340125e-02,-1.846666666666651330e-02,-3.774166666666680520e-02,-5.801666666666654981e-02,-6.899999999999981148e-02
1.064166666666679396e-02,-1.478333333333338440e-02,-1.407500000000008050e-02,-3.355833333333371055e-02,-5.391666666666677932e-02,-6.078333333333317545e-02
1.077500000000012649e-02,-1.456666666666669996e-02,-1.799999999999984251e-02,-3.354166666666704572e-02,-4.566666666666636953e-02,-6.091666666666650798e-02
6.733333333333254428e-03,-1.435000000000002940e-02,-1.775833333333317471e-02,-3.351666666666704847e-02,-4.579166666666636965e-02,-5.691666666666674035e-02
1.104166666666679328e-02,-1.410833333333337547e-02,-1.749166666666650966e-02,-3.348333333333371187e-02,-4.588333333333303315e-02,-6.124999999999983930e-02
1.117500000000012754e-02,-1.384166666666671042e-02,-1.720833333333317630e-02,-2.927499999999973179e-02,-4.594999999999970636e-02,-5.723333333333339989e-02
1.131666666666679422e-02,-1.355833333333338053e-02,-1.690833333333317465e-02,-2.920833333333306206e-02,-4.597499999999970360e-02,-5.320833333333319093e-02
1.145833333333346089e-02,-1.327500000000002289e-02,-1.661666666666650888e-02,-2.496666666666663356e-02,-4.604166666666636987e-02,-5.334166666666653039e-02
1.161666666666679414e-02,-1.296666666666668188e-02,-2.046666666666671630e-02,-2.906666666666639712e-02,-5.028333333333368654e-02,-5.764166666666673683e-02
7.599999999999921055e-03,-1.681666666666643828e-02,-2.429999999999981480e-02,-3.732500000000014279e-02,-5.864999999999987584e-02,-6.191666666666650193e-02
1.608333333333322734e-02,-1.234166666666668133e-02,-2.399166666666648073e-02,-3.308333333333371429e-02,-5.867499999999988003e-02,-6.620833333333336901e-02
1.205000000000013005e-02,-1.204166666666668661e-02,-1.955833333333338239e-02,-2.887499999999973074e-02,-5.458333333333345583e-02,-6.219999999999983875e-02
1.217500000000013016e-02,-1.176666666666668914e-02,-1.514999999999984415e-02,-2.885833333333306591e-02,-5.883333333333321674e-02,-6.235833333333316852e-02
1.230833333333346269e-02,-7.316666666666485352e-03,-1.908333333333338266e-02,-2.884999999999973003e-02,-5.474166666666678560e-02,-7.086666666666646686e-02
1.244166666666679522e-02,-7.041666666666501762e-03,-1.468333333333317683e-02,-3.300833333333371561e-02,-5.482500000000011670e-02,-7.102499999999981051e-02
1.257500000000012774e-02,-6.791666666666487662e-03,-1.444999999999984144e-02,-2.882499999999972931e-02,-5.491666666666678021e-02,-5.868333333333340673e-02
1.689999999999989080e-02,-6.541666666666473562e-03,-1.418333333333317639e-02,-2.461666666666663048e-02,-4.662499999999970141e-02,-5.047500000000010312e-02
1.707499999999989235e-02,-1.045000000000001483e-02,-1.804166666666671623e-02,-2.870833333333306162e-02,-5.081666666666702359e-02,-5.476666666666653305e-02
8.924999999999920844e-03,-1.015000000000002012e-02,-1.768333333333338420e-02,-2.862499999999972705e-02,-5.083333333333369536e-02,-6.324166666666650172e-02
1.331666666666679252e-02,-9.791666666666684615e-03,-1.725833333333338590e-02,-2.850833333333305936e-02,-5.498333333333345341e-02,-6.337499999999984812e-02
1.355000000000012618e-02,-9.383333333333354620e-03,-2.095833333333314841e-02,-3.255000000000037724e-02,-5.914166666666655081e-02,-7.184166666666647050e-02
1.794999999999988965e-02,-4.766666666666502516e-03,-2.045833333333314796e-02,-2.822499999999972947e-02,-5.493333333333345891e-02,-6.779166666666672225e-02
1.397500000000012621e-02,-1.269166666666647625e-02,-1.996666666666648340e-02,-2.807499999999972518e-02,-5.494166666666678439e-02,-5.957500000000007234e-02
9.974999999999919695e-03,-8.133333333333367388e-03,-1.533333333333338627e-02,-2.794166666666639265e-02,-5.499166666666678582e-02,-5.970000000000007939e-02
1.013333333333325294e-02,-7.783333333333364301e-03,-1.490000000000005383e-02,-3.200000000000037537e-02,-5.919999999999988466e-02,-5.983333333333341192e-02
1.442500000000012696e-02,-3.291666666666484553e-03,-1.862499999999981531e-02,-3.186666666666704284e-02,-5.085000000000035325e-02,-5.990833333333341060e-02
1.034166666666658588e-02,-7.166666666666682284e-03,-1.402500000000005305e-02,-3.169166666666704824e-02,-5.075833333333368974e-02,-5.991666666666674301e-02
1.455833333333346122e-02,-6.891666666666684815e-03,-1.360833333333338543e-02,-2.734166666666639628e-02,-5.063333333333368269e-02,-5.989166666666673883e-02
1.458333333333346193e-02,-6.641666666666698471e-03,-9.041666666666512212e-03,-2.715833333333306232e-02,-5.467500000000010546e-02,-5.984166666666673740e-02
1.459166666666679435e-02,-2.266666666666486418e-03,-8.658333333333177728e-03,-2.695833333333306353e-02,-5.870833333333320275e-02,-6.810000000000004938e-02
1.457500000000012778e-02,-6.250000000000019429e-03,-8.316666666666510527e-03,-2.260833333333329975e-02,-5.439166666666678251e-02,-6.385833333333316986e-02
1.455000000000012880e-02,-6.108333333333354487e-03,-3.858333333333414938e-03,-1.827500000000020428e-02,-5.007500000000034840e-02,-5.544166666666652810e-02
1.451666666666679220e-02,-5.983333333333354376e-03,-3.616666666666748433e-03,-1.814166666666687175e-02,-4.575833333333303304e-02,-4.703333333333322569e-02
1.031666666666658516e-02,-5.875000000000019096e-03,-7.558333333333177445e-03,-2.218333333333329799e-02,-4.976666666666702127e-02,-5.529166666666653074e-02
6.108333333333488060e-03,-1.616666666666474739e-03,-1.152500000000005256e-02,-3.041666666666704641e-02,-5.378333333333344679e-02,-5.938333333333340597e-02
1.891666666666614455e-03,-9.883333333333105264e-03,-1.551666666666648084e-02,-3.034166666666704773e-02,-5.784166666666654133e-02,-5.933333333333340454e-02
6.016666666666822816e-03,-9.799999999999781108e-03,-1.118333333333338363e-02,-2.609999999999973105e-02,-5.355833333333344382e-02,-5.929166666666673552e-02
1.824999999999949059e-03,-1.390833333333332811e-02,-1.519166666666648020e-02,-3.437500000000014155e-02,-6.594166666666695376e-02,-6.341666666666649632e-02
5.966666666666822251e-03,-1.385833333333333361e-02,-1.505833333333314768e-02,-3.434166666666681189e-02,-5.749166666666653824e-02,-5.920000000000007201e-02
5.941666666666823270e-03,-1.381666666666665766e-02,-1.494166666666648172e-02,-3.015833333333371724e-02,-5.320833333333344073e-02,-5.916666666666674235e-02
1.758333333333282796e-03,-1.377499999999998170e-02,-1.899166666666669140e-02,-3.014166666666705241e-02,-5.728333333333320704e-02,-5.911666666666673398e-02
1.741666666666615362e-03,-1.373333333333331963e-02,-1.889166666666668853e-02,-3.014166666666705241e-02,-5.305000000000011096e-02,-5.491666666666653041e-02
1.733333333333282079e-03,-9.533333333333116055e-03,-1.462499999999981350e-02,-3.013333333333371999e-02,-4.464166666666637140e-02,-4.654999999999989702e-02
5.883333333333489422e-03,-1.370000000000000384e-02,-1.453333333333314478e-02,-2.596666666666640200e-02,-4.040833333333328226e-02,-4.649166666666656317e-02
5.833333333333490592e-03,-1.797500000000019915e-02,-1.867500000000002144e-02,-3.011666666666705169e-02,-4.442499999999970778e-02,-4.639999999999989966e-02
1.524999999999950007e-03,-1.831666666666685594e-02,-1.891666666666668578e-02,-3.020000000000038626e-02,-4.418333333333304691e-02,-5.033333333333343818e-02
1.433333333333283895e-03,-1.450833333333331754e-02,-1.523333333333314749e-02,-2.639166666666640376e-02,-4.833333333333369314e-02,-5.021666666666677048e-02
-2.566666666666479399e-03,-1.459166666666664169e-02,-1.990000000000002184e-02,-3.126666666666705341e-02,-5.306666666666678966e-02,-5.057500000000010598e-02
-1.999999999999812691e-03,-1.833333333333352078e-02,-2.006666666666668750e-02,-3.640000000000014752e-02,-5.438333333333345010e-02,-5.580833333333319601e-02
-8.833333333331458426e-04,-1.728333333333352539e-02,-1.969166666666668716e-02,-4.184999999999991505e-02,-6.509999999999964426e-02,-6.210833333333340422e-02
4.916666666666617835e-03,-1.570000000000019991e-02,-1.879166666666668567e-02,-3.928333333333348248e-02,-6.859166666666630108e-02,-6.119166666666653320e-02
6.966666666666618442e-03,-9.433333333333335236e-03,-1.294999999999981236e-02,-4.090833333333348393e-02,-6.866666666666654262e-02,-6.105000000000010418e-02
9.116666666666616708e-03,-1.110833333333353934e-02,-1.489166666666668672e-02,-4.646666666666657980e-02,-7.708333333333297621e-02,-6.944999999999985907e-02
2.508333333333315120e-03,-8.725000000000218692e-03,-1.248333333333335494e-02,-4.719166666666658322e-02,-7.180833333333344615e-02,-7.291666666666653251e-02
7.708333333333521747e-03,-6.975000000000217137e-03,-5.924999999999814096e-03,-4.267500000000015031e-02,-6.468333333333303736e-02,-6.659999999999989539e-02
1.230833333333328575e-02,-1.774999999999998801e-03,-8.058333333333354831e-03,-4.171666666666681844e-02,-6.457499999999971596e-02,-6.738333333333322572e-02
1.652500000000015762e-02,-5.458333333333537096e-03,-1.074166666666689571e-02,-4.079166666666681623e-02,-6.408333333333304793e-02,-6.754166666666655550e-02
8.100000000000186912e-03,-5.241666666666880414e-03,-5.458333333333353216e-03,-3.589166666666705752e-02,-6.779166666666702756e-02,-6.753333333333322308e-02
3.899999999999980739e-03,-5.116666666666880303e-03,-4.625000000000021455e-03,-3.536666666666705289e-02,-6.744166666666702448e-02,-6.749999999999989342e-02
8.083333333333520346e-03,-9.199999999999985967e-03,7.500000000018602897e-05,-3.505833333333371882e-02,-6.720833333333368909e-02,-6.328333333333346911e-02
1.226666666666661673e-02,-4.950000000000218114e-03,-7.941666666666891833e-03,-3.906666666666681886e-02,-6.703333333333369448e-02,-7.160000000000010800e-02
8.108333333333519327e-03,-7.333333333333358350e-04,-1.190833333333332286e-02,-4.313333333333324582e-02,-7.103333333333344823e-02,-7.990000000000006819e-02
8.075000000000187930e-03,-4.891666666666863450e-03,-3.458333333333354909e-03,-3.890833333333348215e-02,-7.090833333333344812e-02,-7.154166666666676722e-02
1.219999999999995047e-02,-7.333333333333358350e-04,8.083333333335218640e-04,-2.636666666666663550e-02,-6.665000000000034786e-02,-6.318333333333346624e-02
1.215833333333328492e-02,-9.066666666666639562e-03,9.000000000001853739e-04,-3.049166666666639630e-02,-5.405000000000017429e-02,-5.895833333333325849e-02
1.209999999999995107e-02,-4.916666666666888452e-03,9.308333333333491250e-03,-2.212500000000020353e-02,-3.726666666666690608e-02,-5.473333333333349482e-02
1.204166666666661722e-02,-7.750000000000117906e-04,1.769166666666679641e-02,-1.376666666666645500e-02,-3.713333333333357356e-02,-4.635000000000018966e-02
3.641666666666648101e-03,-7.916666666666766217e-04,1.772500000000012954e-02,-1.792499999999954893e-02,-4.532499999999976825e-02,-4.630000000000018823e-02
3.566666666666648555e-03,3.341666666666867624e-03,3.024999999999986033e-02,-9.591666666666691030e-03,-3.269999999999959051e-02,-3.791666666666689001e-02
3.483333333333315726e-03,1.579999999999993909e-02,5.111666666666667830e-02,1.125833333333301281e-02,-1.173333333333322070e-02,-2.950833333333314004e-02
1.169999999999995349e-02,2.822500000000011111e-02,6.781666666666662235e-02,2.379166666666652358e-02,-3.233333333333691939e-03,-1.690833333333340710e-02
1.575833333333349212e-02,3.647500000000009068e-02,8.454166666666655672e-02,3.638333333333336472e-02,-2.991666666667024133e-03,-1.255833333333319750e-02
7.308333333333522433e-03,4.469166666666671284e-02,9.294166666666653365e-02,4.068333333333312707e-02,-2.666666666667025232e-03,-1.231666666666653143e-02
3.016666666666647546e-03,5.701666666666645178e-02,9.720000000000007800e-02,4.504166666666711144e-02,1.022499999999982451e-02,-7.833333333333435122e-03
-9.616666666666865218e-03,6.096666666666666901e-02,6.400833333333352804e-02,2.030000000000009228e-02,2.366666666666961127e-03,-2.411666666666670983e-02
-9.741666666666863594e-03,6.075000000000001232e-02,3.092499999999986579e-02,-4.316666666666930247e-03,-1.370833333333297543e-02,-3.612500000000022637e-02
-2.234166666666660001e-02,4.393333333333340751e-02,3.558333333333340426e-02,8.774999999999913078e-03,-4.575000000000106759e-03,-1.464166666666674201e-02
-3.909999999999987097e-02,2.298333333333324457e-02,2.807500000000009641e-02,9.716666666666578384e-03,6.999999999996453504e-04,-1.258333333333230310e-03
-6.427500000000022085e-02,-2.233333333333323290e-03,8.433333333333282306e-03,6.916666666666819105e-03,1.054166666666672691e-02,4.124999999999866621e-03
-6.870833333333331572e-02,-3.174166666666677905e-02,1.608333333333315796e-03,8.675000000000151340e-03,1.660833333333315565e-02,9.800000000000070807e-03
-5.656666666666648052e-02,-3.631666666666655274e-02,-7.250000000002254641e-04,1.080833333333348391e-02,1.470000000000005330e-02,1.161666666666673862e-02
-4.034166666666653966e-02,-2.844999999999991980e-02,5.633333333333316595e-03,9.175000000000385972e-03,8.974999999999642986e-03,9.533333333333199322e-03
-3.248333333333323220e-02,-8.091666666666871843e-03,2.070000000000015231e-02,1.624166666666681386e-02,2.028333333333338928e-02,1.187499999999986830e-02
-2.474999999999992831e-02,-4.483333333333325288e-03,3.192500000000012689e-02,2.784166666666634121e-02,3.616666666666690927e-02,2.697500000000004408e-02
-1.307500000000019584e-02,-1.365833333333330013e-02,3.098333333333325168e-02,2.322500000000014830e-02,2.751666666666673436e-02,2.155833333333340845e-02
-1.758333333333350667e-03,-1.913333333333350206e-02,2.184166666666684936e-02,1.072500000000020659e-02,2.733333333333278631e-03,-4.325000000000044087e-03
5.074999999999953680e-03,-2.090833333333350086e-02,1.679999999999975957e-02,-1.433333333333064452e-03,-1.332499999999976065e-02,-2.573333333333328518e-02
1.166666666666658914e-02,-1.891666666666663721e-02,1.566666666666666902e-02,-5.008333333333475634e-03,-1.239166666666708348e-02,-3.445000000000013329e-02
1.384166666666679715e-02,-1.729166666666687169e-02,2.247499999999976600e-02,-8.349999999999670186e-03,-1.939999999999970567e-02,-4.294999999999987023e-02
7.383333333333257434e-03,-2.439999999999996338e-02,1.616666666666646823e-02,-3.174999999999671141e-03,-2.601666666666654915e-02,-3.872499999999986370e-02
9.041666666666798441e-03,-2.355833333333352819e-02,2.165000000000000258e-02,6.033333333333425197e-03,-2.010833333333321774e-02,-3.865833333333339866e-02
6.783333333333467496e-03,-2.682500000000019591e-02,1.817499999999980242e-02,6.133333333333657045e-03,-1.519166666666655306e-02,-3.507500000000007140e-02
1.334166666666677242e-02,-2.966666666666686880e-02,2.247500000000000886e-02,9.108333333333662463e-03,-3.575000000000360875e-03,-2.829999999999985999e-02
7.733333333333231030e-03,-3.204166666666687091e-02,1.814166666666646582e-02,7.083333333333011184e-03,2.975000000000291647e-03,-2.210833333333343115e-02
2.341666666666804286e-03,-3.406666666666686993e-02,2.189166666666667038e-02,1.285833333333366579e-02,4.800000000000300554e-03,-1.632499999999988821e-02
1.333333333333467513e-03,-3.990833333333329569e-02,1.701666666666647176e-02,9.741666666666343177e-03,6.100000000000299627e-03,-2.349999999999985434e-02
4.808333333333230514e-03,-4.108333333333329118e-02,2.039166666666667599e-02,1.439166666666699679e-02,6.866666666666965124e-03,-1.450833333333321346e-02
2.833333333334651927e-04,-4.176666666666661865e-02,1.549166666666647318e-02,1.021666666666634637e-02,3.016666666666310143e-03,-1.842500000000008714e-02
1.666666666667974972e-04,-3.793333333333351320e-02,1.490833333333314858e-02,9.916666666666351659e-03,1.132500000000005724e-02,-1.847500000000008857e-02
1.500000000001291967e-04,-4.227499999999995151e-02,1.862500000000002348e-02,1.369166666666700449e-02,1.116666666666672400e-02,-1.446666666666655138e-02
8.491666666666765340e-03,-2.989166666666642769e-02,2.235833333333311912e-02,9.083333333333026838e-03,6.775000000000298145e-03,-2.303333333333319050e-02
2.104999999999983273e-02,2.005000000000004001e-02,4.273333333333325518e-02,2.583333333334991710e-04,-3.100000000000023223e-02,-6.084166666666660644e-02
6.279166666666680108e-02,1.241916666666665475e-01,1.547666666666668578e-01,4.140000000000046421e-02,-6.465833333333345645e-02,-1.278416666666667978e-01
5.040833333333329114e-02,1.575416666666668575e-01,2.793083333333334917e-01,1.700166666666668991e-01,2.664166666666666766e-02,-8.654166666666651686e-02
-6.609166666666674295e-02,2.425833333333310415e-02,2.788333333333334885e-01,3.110833333333334894e-01,2.595416666666667260e-01,1.171833333333334171e-01
-2.492416666666665281e-01,-2.256666666666669041e-01,9.917500000000015192e-02,4.104333333333331502e-01,5.882500000000000506e-01,4.375583333333333824e-01
-5.032000000000000917e-01,-5.214166666666665284e-01,-1.762833333333335417e-01,5.389583333333337611e-01,1.062791666666666357e+00,9.204499999999998794e-01
-7.863249999999999407e-01,-8.046333333333335336e-01,-4.808749999999997748e-01,6.800166666666670467e-01,1.616533333333333378e+00,1.465891666666666593e+00
-1.031975000000000087e+00,-1.058699999999999974e+00,-8.813250000000001361e-01,7.002500000000001501e-01,2.011924999999999741e+00,1.877966666666666784e+00
-1.098466666666666702e+00,-1.262783333333333369e+00,-1.119266666666666632e+00,6.704749999999999321e-01,2.136508333333333010e+00,2.077541666666666842e+00
-9.399750000000001160e-01,-1.254425000000000123e+00,-1.178058333333333429e+00,4.490583333333334481e-01,1.740266666666666850e+00,1.814650000000000096e+00
-5.981666666666666243e-01,-9.544333333333334668e-01,-1.157708333333332895e+00,-4.318333333333370522e-02,8.607083333333337416e-01,1.143458333333333243e+00
-2.646916666666664919e-01,-5.794500000000000206e-01,-1.012383333333333191e+00,-4.396250000000000435e-01,7.695833333333292059e-02,4.639000000000002011e-01
-3.536666666666662268e-02,-2.836333333333332929e-01,-7.462749999999999106e-01,-4.944499999999996676e-01,-2.443166666666665987e-01,5.930833333333339341e-02
6.063333333333326136e-02,-1.336583333333334067e-01,-5.301999999999997826e-01,-3.993249999999997635e-01,-2.614499999999998492e-01,-6.613333333333328012e-02
4.413333333333331610e-02,-7.118333333333340396e-02,-3.724499999999999478e-01,-2.875499999999999723e-01,-1.994249999999998801e-01,-8.324999999999987965e-02
1.930833333333339952e-02,-4.202499999999995128e-02,-2.105416666666665160e-01,-1.757750000000001256e-01,-1.374333333333332130e-01,-7.955833333333345303e-02
1.949166666666673695e-02,-3.787500000000018630e-02,-9.866666666666670804e-02,-1.015249999999999486e-01,-9.631666666666624521e-02,-7.172500000000014975e-02
3.219166666666647275e-02,-2.537500000000000866e-02,-2.849166666666673453e-02,-4.815000000000036612e-02,-6.772500000000035436e-02,-6.394166666666684096e-02
4.489999999999998159e-02,-4.533333333333194881e-03,8.325000000000019884e-03,-2.399166666666668196e-02,-5.170000000000041229e-02,-6.039166666666664907e-02
4.513333333333331698e-02,3.841666666666770924e-03,2.016666666666686036e-02,-2.482500000000001372e-02,-5.236666666666707493e-02,-6.099999999999997785e-02
4.538333333333331721e-02,-2.750000000001084910e-04,2.369166666666662480e-02,-2.565833333333334548e-02,-6.969166666666701260e-02,-7.408333333333350090e-02
5.399166666666661840e-02,8.133333333333186976e-03,3.969999999999989510e-02,-1.818333333333292667e-02,-6.204166666666660612e-02,-7.888333333333326369e-02
5.845000000000015461e-02,1.240000000000007763e-02,4.320000000000009943e-02,-1.491666666666649488e-02,-7.108333333333369253e-02,-8.370833333333346782e-02
5.875833333333348868e-02,1.668333333333316126e-02,5.501666666666649164e-02,-1.166666666666673485e-02,-7.182500000000036078e-02,-7.189999999999993618e-02
5.489166666666662336e-02,1.682499999999982621e-02,5.016666666666673435e-02,-1.256666666666673288e-02,-6.839999999999971103e-02,-7.258333333333327753e-02
5.520833333333328985e-02,1.283333333333339099e-02,5.780833333333336432e-02,-9.333333333333637682e-03,-6.915833333333303024e-02,-7.327499999999995128e-02
5.552499999999994940e-02,1.720833333333315895e-02,6.545000000000000817e-02,-1.949999999999889322e-03,-6.576666666666659833e-02,-7.396666666666661116e-02
5.584166666666662282e-02,1.744166666666648047e-02,6.477500000000001312e-02,-7.091666666666315844e-03,-6.654999999999992866e-02,-7.464999999999995250e-02
5.616666666666662172e-02,1.770833333333315940e-02,6.408333333333335324e-02,-3.883333333333217896e-03,-5.484166666666642070e-02,-7.121666666666684464e-02
5.231666666666685839e-02,1.801666666666650041e-02,6.339166666666667949e-02,-4.866666666666553953e-03,-5.980833333333374080e-02,-7.195833333333351289e-02
5.263333333333351793e-02,1.420833333333340609e-02,5.857499999999980778e-02,-5.841666666666557595e-03,-7.309166666666636059e-02,-8.517499999999991744e-02
5.295000000000019136e-02,1.878333333333316590e-02,6.212500000000001354e-02,-6.766666666666552865e-03,-7.382499999999969642e-02,-8.999166666666678915e-02
5.327500000000019026e-02,2.340000000000003189e-02,6.569166666666644006e-02,-3.533333333333457671e-03,-6.209166666666707940e-02,-7.814166666666660932e-02
5.775833333333328656e-02,2.804999999999979732e-02,7.341666666666685215e-02,3.825000000000286504e-03,-4.623333333333291134e-02,-6.634166666666688195e-02
4.972499999999998449e-02,2.440000000000001890e-02,7.278333333333353306e-02,2.825000000000292555e-03,-4.704999999999957827e-02,-6.289166666666667904e-02
5.003333333333331856e-02,2.079166666666647234e-02,6.798333333333331230e-02,-2.325000000000361500e-03,-5.199166666666689418e-02,-6.356666666666667409e-02
5.451666666666685895e-02,2.556666666666669585e-02,7.153333333333353194e-02,-3.325000000000369327e-03,-5.694166666666666127e-02,-6.843333333333355417e-02
5.485000000000019027e-02,2.624166666666669090e-02,7.510833333333329087e-02,-1.583333333330452786e-04,-5.773333333333333095e-02,-6.495833333333335402e-02
5.100833333333331526e-02,3.109999999999979448e-02,7.865833333333349664e-02,2.975000000000053990e-03,-5.020833333333291765e-02,-5.731666666666671017e-02
5.131666666666664933e-02,3.597500000000002085e-02,7.384166666666662493e-02,1.883333333333389592e-03,-5.101666666666625216e-02,-5.384166666666650308e-02
5.995833333333328019e-02,4.087500000000023059e-02,8.150833333333326602e-02,7.750000000000534239e-04,-7.683333333333326742e-02,-6.285833333333312734e-02
6.026666666666662120e-02,4.165000000000022851e-02,7.664166666666683003e-02,-4.499999999999716033e-03,-9.426666666666654038e-02,-8.018333333333352297e-02
6.058333333333328075e-02,4.245833333333355608e-02,8.010833333333326756e-02,-1.474999999999952044e-03,-8.671666666666702494e-02,-7.249166666666689851e-02
6.508333333333349291e-02,5.164166666666684946e-02,7.939166666666659655e-02,-2.674999999999955191e-03,-7.090000000000040714e-02,-7.316666666666687968e-02
6.541666666666681729e-02,5.251666666666685024e-02,7.863333333333326347e-02,-3.916666666666623886e-03,-5.094166666666648247e-02,-6.551666666666647321e-02
6.155833333333328439e-02,4.506666666666685195e-02,6.948333333333329975e-02,-1.355833333333370666e-02,-5.598333333333291306e-02,-7.455833333333355961e-02
4.937499999999977324e-02,4.596666666666684997e-02,7.280833333333350255e-02,-1.490833333333370717e-02,-7.774166666666683378e-02,-8.777499999999995028e-02
5.389166666666664329e-02,5.109166666666661860e-02,7.196666666666683143e-02,-1.627500000000037250e-02,-1.120166666666667227e-01,-9.264166666666683037e-02
5.841666666666685270e-02,6.041666666666660468e-02,7.947500000000012887e-02,-1.765833333333370614e-02,-8.792499999999969784e-02,-8.914166666666661909e-02
6.295833333333328286e-02,6.142499999999995186e-02,8.283333333333323112e-02,-1.072499999999995679e-02,-6.380833333333356394e-02,-7.726666666666688610e-02
5.500833333333331188e-02,5.825000000000017664e-02,8.198333333333322759e-02,-1.633333333333305062e-02,-6.055833333333290880e-02,-7.374166666666667758e-02
5.955000000000018612e-02,6.339166666666659622e-02,8.110833333333322681e-02,-1.362499999999995312e-02,-4.480833333333297114e-02,-6.604166666666670682e-02
5.574166666666664077e-02,6.018333333333350521e-02,8.024999999999989087e-02,-1.506666666666662061e-02,-3.735833333333344469e-02,-6.662500000000004530e-02
5.610833333333330869e-02,6.530833333333325996e-02,7.944166666666656329e-02,-1.230000000000019099e-02,-4.651666666666630368e-02,-6.716666666666670782e-02
5.648333333333330902e-02,6.625833333333325248e-02,8.285000000000010412e-02,-1.365833333333352564e-02,-5.142500000000028992e-02,-6.765833333333337585e-02
5.270833333333310028e-02,6.719166666666659404e-02,7.797499999999989162e-02,-1.915833333333329114e-02,-6.880833333333355450e-02,-7.645833333333335036e-02
5.309166666666643303e-02,6.808333333333325965e-02,7.731666666666656140e-02,-2.045833333333328674e-02,-7.781666666666642307e-02,-8.105000000000023297e-02
5.763333333333330727e-02,7.311666666666680192e-02,8.504999999999986182e-02,-2.167499999999995819e-02,-7.838333333333308284e-02,-8.140000000000022218e-02
5.383333333333310128e-02,7.811666666666655656e-02,8.450833333333319930e-02,-1.865000000000019420e-02,-8.307500000000041240e-02,-8.589166666666665784e-02
5.833333333333330650e-02,8.721666666666653966e-02,8.817500000000007276e-02,-1.554166666666621094e-02,-7.941666666666642727e-02,-8.624999999999997946e-02
5.863333333333330816e-02,9.210000000000007070e-02,9.189999999999984293e-02,-1.234166666666644888e-02,-7.152500000000022728e-02,-8.240000000000022307e-02
6.308333333333351889e-02,9.276666666666673333e-02,9.985833333333314632e-02,-9.041666666666683949e-03,-7.192500000000022486e-02,-7.431666666666647547e-02
5.919166666666664245e-02,9.754166666666649887e-02,9.955833333333313773e-02,-1.397499999999977927e-02,-7.223333333333355200e-02,-7.866666666666669028e-02
5.945833333333330750e-02,9.810833333333317252e-02,1.034750000000000114e-01,-1.046666666666668313e-02,-8.078333333333308219e-02,-8.714999999999999136e-02
5.969999999999997531e-02,1.027833333333333793e-01,1.074749999999997790e-01,-1.100833333333334739e-02,-7.258333333333355508e-02,-7.474999999999980271e-02
5.574999999999976502e-02,1.073999999999998012e-01,1.073583333333331113e-01,-7.291666666666917450e-03,-6.851666666666623995e-02,-7.901666666666667949e-02
5.593333333333309898e-02,1.161249999999997701e-01,1.156166666666668535e-01,-3.499999999999599352e-03,-6.857499999999956686e-02,-7.493333333333314361e-02
6.024999999999997718e-02,1.206166666666666359e-01,1.280333333333332491e-01,4.508333333333260085e-03,-6.444999999999981299e-02,-7.084166666666670553e-02
6.038333333333330971e-02,1.208999999999999658e-01,1.321333333333334636e-01,1.257500000000034111e-02,-6.030000000000004801e-02,-6.674999999999983724e-02
6.049999999999997741e-02,1.294749999999999512e-01,1.445999999999998675e-01,2.488333333333296246e-02,-5.194166666666630294e-02,-4.594166666666679721e-02
6.059999999999997333e-02,1.380083333333332329e-01,1.529083333333331740e-01,2.054999999999986698e-02,-6.022500000000005627e-02,-4.595000000000012963e-02
6.486666666666685011e-02,1.465083333333332127e-01,1.612249999999998129e-01,2.874166666666694986e-02,-6.015000000000005065e-02,-5.846666666666652801e-02
6.080833333333331148e-02,1.466583333333332240e-01,1.695583333333331166e-01,2.863333333333361805e-02,-6.006666666666671262e-02,-5.430833333333343754e-02
5.671666666666643625e-02,1.426166666666667804e-01,1.653916666666666868e-01,3.271666666666671330e-02,-4.330000000000010923e-02,-5.430833333333343754e-02
4.428333333333336896e-02,1.385499999999999232e-01,1.695416666666664518e-01,4.097500000000046244e-02,-3.486666666666636549e-02,-5.430000000000009819e-02
4.017499999999982890e-02,1.386416666666665798e-01,1.778583333333335348e-01,5.341666666666641805e-02,-1.806666666666642204e-02,-4.597500000000013382e-02
4.440000000000003666e-02,1.387166666666665993e-01,1.778500000000002024e-01,5.336666666666641662e-02,-1.794999999999975088e-02,-3.765833333333349492e-02
4.863333333333313274e-02,1.429500000000001325e-01,1.903499999999999359e-01,6.164166666666683059e-02,-9.566666666666896746e-03,-2.518333333333332147e-02
4.870833333333313142e-02,1.472083333333332189e-01,1.986833333333332396e-01,6.992499999999968185e-02,2.933333333333280890e-03,3.950000000000130490e-03
4.461666666666670028e-02,1.389583333333332671e-01,1.945083333333334774e-01,6.985833333333302253e-02,-1.224999999999816513e-03,3.891666666666796642e-03
3.636666666666672765e-02,1.306999999999999829e-01,1.819999999999999674e-01,6.560833333333325468e-02,-1.208333333333148213e-03,-1.700833333333335098e-02
2.810000000000009365e-02,1.224249999999999922e-01,1.778166666666668727e-01,6.552499999999993052e-02,2.983333333333278853e-03,-2.125000000000022010e-02
3.234166666666651868e-02,1.183166666666664313e-01,1.736333333333333340e-01,7.380000000000033755e-02,7.191666666666377689e-03,-1.713333333333334416e-02
3.241666666666652430e-02,1.100499999999997869e-01,1.819583333333333053e-01,7.373333333333367823e-02,3.049999999999945116e-03,-8.850000000000041861e-03
3.248333333333319056e-02,1.059416666666666840e-01,1.778000000000002079e-01,7.365833333333367261e-02,-1.099999999999819872e-03,-1.305833333333314070e-02
2.840000000000009184e-02,1.018499999999998296e-01,1.736333333333333340e-01,6.526666666666659788e-02,-1.772499999999975831e-02,-1.728333333333334498e-02
1.596666666666658047e-02,8.940000000000010438e-02,1.694499999999997675e-01,6.936666666666635450e-02,-1.024999999999821193e-03,3.475000000000137701e-03
7.708333333333278019e-03,7.280833333333350255e-02,1.569583333333333941e-01,6.931666666666636001e-02,1.567500000000012286e-02,2.008333333333341131e-02
7.774999999999944282e-03,6.455000000000020444e-02,1.444749999999998813e-01,6.510833333333325423e-02,1.157500000000035931e-02,2.006666666666674301e-02
3.683333333333513575e-03,6.462500000000021005e-02,1.361666666666665748e-01,6.093333333333349894e-02,-4.999999999999581168e-03,2.007500000000007542e-02
7.924999999999942507e-03,6.053333333333335564e-02,1.320250000000001422e-01,6.090833333333349475e-02,-7.499999999998167854e-04,2.424999999999983766e-02
3.833333333333513102e-03,4.811666666666651604e-02,1.195416666666666294e-01,6.090000000000016234e-02,3.270000000000006235e-02,4.092499999999978100e-02
-2.583333333333604474e-04,3.152499999999990032e-02,9.873333333333314532e-02,5.673333333333373252e-02,4.119166666666625176e-02,3.678333333333334842e-02
-8.524999999999997857e-03,2.326666666666658834e-02,7.792500000000010529e-02,4.006666666666712506e-02,2.471666666666631415e-02,2.850000000000004613e-02
-8.474999999999996425e-03,1.915833333333348543e-02,6.544166666666659249e-02,3.590833333333313948e-02,2.071666666666654999e-02,2.021666666666674383e-02
-1.258333333333353822e-02,1.505833333333328472e-02,5.295833333333353071e-02,3.589166666666647465e-02,4.165833333333292254e-02,2.025000000000007697e-02
-1.667499999999996763e-02,2.625000000000224376e-03,4.462499999999978290e-02,2.752500000000027841e-02,4.169999999999958462e-02,2.438333333333317018e-02
-1.658333333333330065e-02,-5.625000000000199285e-03,4.044166666666668825e-02,2.331666666666629487e-02,3.759166666666649559e-02,3.267499999999980836e-02
-1.233333333333353973e-02,-1.366666666666654928e-03,3.626666666666648192e-02,2.328333333333295826e-02,3.351666666666672234e-02,3.264166666666647870e-02
-1.226666666666687520e-02,-1.299999999999981726e-03,2.372500000000007936e-02,1.906666666666653048e-02,2.940833333333363331e-02,1.594166666666653812e-02
-3.883333333333570912e-03,-1.274999999999998357e-03,1.947499999999987436e-02,6.466666666666350850e-03,8.574999999999711325e-03,3.358333333333473475e-03
-3.833333333333571215e-03,-1.258333333333333526e-03,1.935833333333320666e-02,-1.983333333333175616e-03,-3.916666666666245716e-03,3.258333333333470611e-03
3.749999999999691080e-04,-1.266666666666665941e-03,2.336666666666674386e-02,2.041666666666586659e-03,8.583333333333043741e-03,1.564166666666653299e-02
4.591666666666842714e-03,-1.275000000000012235e-03,2.319166666666674925e-02,6.058333333333015651e-03,1.690833333333345914e-02,1.557499999999987020e-02
4.999999999999679180e-04,-5.466666666666883390e-03,1.884999999999987380e-02,-2.424999999999845248e-03,8.583333333333043741e-03,7.191666666666565039e-03
4.750000000000174222e-03,-1.341666666666671559e-03,1.869166666666653709e-02,-2.549999999999845793e-03,8.666666666666378305e-03,3.008333333333466919e-03
6.833333333333001421e-04,-1.391666666666666052e-03,1.854999999999987215e-02,-6.816666666666275007e-03,4.574999999999947164e-03,-5.349999999999834055e-03
4.983333333333506143e-03,-5.591666666666869623e-03,1.425833333333344395e-02,-1.110000000000026070e-02,-1.625833333333309011e-02,-9.600000000000042527e-03
1.348333333333347726e-02,-1.424999999999995715e-03,2.252500000000007968e-02,-7.024999999999607947e-03,-7.966666666666896018e-03,-1.383333333333406495e-03
1.369166666666681020e-02,2.808333333333551396e-03,2.250833333333341485e-02,-7.099999999999606626e-03,-7.966666666666896018e-03,-5.658333333333171594e-03
1.392500000000014213e-02,2.941666666666870045e-03,2.668333333333317708e-02,-7.199999999999606888e-03,-2.049166666666707437e-02,-1.410833333333314302e-02
1.414166666666680922e-02,3.083333333333521109e-03,2.670833333333318127e-02,-1.145833333333359100e-02,-3.304166666666636526e-02,-2.259166666666688819e-02
1.433333333333347559e-02,3.216666666666867513e-03,2.674166666666651093e-02,-1.152500000000025900e-02,-4.559999999999987674e-02,-2.689999999999998642e-02
1.866666666666657107e-02,7.499999999999951150e-03,3.094166666666672144e-02,-7.424999999999608129e-03,-4.569166666666654719e-02,-3.120000000000019633e-02
2.298333333333344580e-02,1.175000000000017697e-02,3.509999999999981884e-02,-1.167500000000025809e-02,-3.333333333333303450e-02,-2.721666666666665291e-02
2.312500000000011074e-02,1.183333333333351500e-02,3.925833333333336034e-02,-3.441666666666509666e-03,-1.681666666666642787e-02,-1.908333333333334797e-02
1.907499999999990453e-02,1.193333333333351787e-02,3.925000000000002792e-02,6.499999999999206066e-04,-1.271666666666666085e-02,-1.507499999999980383e-02
1.916666666666657151e-02,1.204166666666683927e-02,3.509166666666648643e-02,5.999999999999213428e-04,-8.541666666666902080e-03,-1.515833333333313840e-02
2.339166666666677927e-02,1.211666666666684489e-02,3.509999999999981884e-02,-3.599999999999843776e-03,-1.265833333333333047e-02,-1.934166666666667714e-02
2.344166666666678070e-02,1.219166666666685050e-02,3.929166666666669694e-02,-3.591666666666509626e-03,-1.670833333333309606e-02,-2.347500000000021445e-02
2.347500000000011383e-02,1.641666666666662111e-02,3.931666666666669419e-02,4.758333333333017445e-03,-1.242500000000000202e-02,-2.344166666666688478e-02
1.933333333333323717e-02,1.646666666666662948e-02,4.350833333333312125e-02,4.766666666666349861e-03,-8.158333333333572801e-03,-2.340833333333355165e-02
1.934999999999990547e-02,1.235833333333352657e-02,4.353333333333311850e-02,4.774999999999683144e-03,-1.639166666666642957e-02,-2.338333333333355094e-02
1.937499999999990619e-02,1.242500000000018590e-02,4.358333333333312687e-02,4.799999999999682992e-03,-1.210833333333333553e-02,-1.916666666666667559e-02
1.107499999999993559e-02,8.316666666666652774e-03,3.945833333333335913e-02,4.833333333333017859e-03,-1.200833333333333613e-02,-1.495833333333313614e-02
1.111666666666660114e-02,8.383333333333325976e-03,3.534166666666648665e-02,6.916666666665885390e-04,-1.606666666666643067e-02,-2.326666666666687977e-02
1.114166666666660185e-02,1.260000000000019438e-02,3.539166666666648808e-02,4.899999999999684122e-03,-1.591666666666642985e-02,-2.319166666666688109e-02
1.532500000000014406e-02,1.681666666666661869e-02,3.960833333333335649e-02,9.116666666667001817e-03,-1.574166666666642830e-02,-1.475833333333313388e-02
1.535000000000014304e-02,1.270000000000019724e-02,3.549166666666648401e-02,4.991666666666351969e-03,-4.062500000000011935e-02,-2.302500000000021196e-02
1.536666666666680961e-02,1.692499999999996785e-02,3.552499999999982061e-02,8.583333333332552814e-04,-4.469166666666654630e-02,-2.299166666666687536e-02
1.539166666666680686e-02,1.698333333333329476e-02,3.972500000000003112e-02,9.225000000000337097e-03,-1.544166666666643012e-02,-6.283333333333158272e-03
1.956666666666656909e-02,1.704166666666662167e-02,3.975000000000002837e-02,1.756666666666652915e-02,1.379166666666702470e-02,2.066666666666813756e-03
1.124166666666660125e-02,1.291666666666685392e-02,3.978333333333336497e-02,1.759166666666652987e-02,2.218333333333321819e-02,6.249999999999904937e-03
1.122499999999993642e-02,8.716666666666650354e-03,3.564166666666648831e-02,1.763333333333319541e-02,1.395833333333369383e-02,6.316666666666567731e-03
1.110833333333327046e-02,8.491666666666661256e-03,3.548333333333315853e-02,1.346666666666676559e-02,-6.658333333333564530e-03,6.516666666666566521e-03
6.791666666666840678e-03,3.941666666666884811e-03,2.664999999999985089e-02,4.891666666666351707e-03,-2.319166666666683946e-02,-1.409166666666647125e-02
6.808333333333506376e-03,7.841666666666635699e-03,2.599166666666651720e-02,4.299999999999684283e-03,-1.514166666666642846e-02,-1.416666666666647340e-02
7.158333333333505993e-03,1.214166666666682826e-02,2.975000000000006112e-02,1.180000000000009860e-02,1.315000000000035585e-02,6.091666666666568225e-03
1.214999999999993516e-02,1.279166666666683994e-02,3.398333333333315720e-02,1.485833333333319226e-02,-5.283333333332917991e-03,8.825000000000107064e-03
9.400000000000172107e-03,9.833333333333305060e-03,2.627499999999985403e-02,8.916666666663490212e-04,-3.738333333333303254e-02,-1.450833333333337478e-02
1.130000000000017275e-02,1.570833333333351844e-02,2.337500000000009015e-02,-4.941666666666746054e-03,-4.545000000000035817e-02,-2.625833333333334185e-02
1.351666666666683989e-02,1.794166666666685561e-02,2.536666666666675951e-02,-2.366666666666983679e-03,-1.645833333333292237e-02,-2.604999999999980248e-02
1.137499999999996673e-02,1.621666666666664314e-02,1.930000000000012261e-02,5.500000000003349432e-04,8.866666666666307706e-03,-8.991666666666765784e-03
1.695000000000017326e-02,1.407500000000020540e-02,2.579166666666655311e-02,2.500000000003350237e-04,-1.413333333333339353e-02,-7.441666666666559189e-03
1.767500000000017321e-02,1.955833333333330953e-02,2.799166666666655368e-02,-7.358333333333414578e-03,-3.537499999999976774e-02,-1.704999999999986388e-02
1.371666666666663398e-02,1.605833333333355623e-02,1.724166666666682168e-02,-1.880000000000026095e-02,-3.489999999999977148e-02,-2.987500000000003694e-02
1.778333333333350502e-02,2.050833333333331593e-02,1.848333333333349038e-02,-1.371666666666627662e-02,-3.010000000000000175e-02,-2.980833333333337068e-02
1.765833333333350838e-02,1.649166666666688347e-02,1.942500000000015395e-02,-8.849999999999847572e-03,-3.790833333333375188e-02,-2.967500000000003815e-02
1.759166666666684212e-02,1.656666666666687521e-02,2.003333333333348967e-02,-8.399999999999848560e-03,-2.919166666666667825e-02,-2.955833333333337046e-02
1.339166666666663508e-02,8.266666666666470931e-03,1.619999999999994708e-02,-1.229999999999960986e-02,-3.725833333333375408e-02,-3.362499999999980088e-02
2.169999999999993809e-02,1.247500000000000692e-02,1.635833333333327685e-02,-7.991666666666515095e-03,-3.289166666666643035e-02,-2.519999999999982671e-02
2.582500000000014645e-02,2.081666666666665000e-02,2.475833333333325031e-02,-7.899999999999848116e-03,-1.603333333333316346e-02,-8.408333333333220874e-03
2.159999999999993869e-02,1.664166666666688776e-02,2.062500000000015363e-02,-7.824999999999849437e-03,-1.997499999999958337e-02,-4.100000000000126113e-03
2.152499999999994001e-02,8.291666666666475116e-03,1.646666666666661213e-02,-7.749999999999850758e-03,-2.809166666666666756e-02,-1.228333333333343075e-02
1.729166666666684393e-02,8.258333333333138515e-03,1.644999999999994730e-02,-1.603333333333360061e-02,-4.455833333333327623e-02,-2.049166666666673436e-02
1.722500000000017767e-02,8.216666666666469498e-03,2.474166666666658548e-02,-1.182499999999961360e-02,-2.354166666666689806e-02,-2.454166666666649649e-02
8.824999999999761854e-03,4.016666666666696139e-03,2.468333333333325511e-02,-3.466666666666753244e-03,-1.503333333333315563e-02,-1.609999999999985748e-02
8.758333333333093856e-03,3.975000000000027123e-03,2.877500000000013033e-02,7.083333333330098583e-04,-2.320000000000023432e-02,-1.600833333333319050e-02
8.683333333333095178e-03,1.226666666666666877e-02,4.949166666666650338e-02,9.025000000000091976e-03,-1.889999999999957686e-02,-3.441666666666789824e-03
1.276666666666663626e-02,2.470833333333351256e-02,7.854166666666662078e-02,3.400000000000044653e-02,6.208333333333218573e-03,9.125000000000053207e-03
1.687500000000017805e-02,4.132500000000012552e-02,9.926666666666676686e-02,5.065000000000038916e-02,1.883333333333338938e-02,1.338333333333315001e-02
1.680833333333351179e-02,4.544999999999988632e-02,1.075000000000000677e-01,6.315833333333301103e-02,2.314166666666647720e-02,2.183333333333312143e-02
1.675000000000018141e-02,5.374999999999985345e-02,1.199083333333331447e-01,7.149166666666675884e-02,2.742499999999957472e-02,3.027500000000019759e-02
1.252499999999997018e-02,7.038333333333313124e-02,1.322833333333333083e-01,7.564166666666652383e-02,3.586666666666665781e-02,3.450833333333329367e-02
-4.208333333333303533e-03,7.452500000000000790e-02,1.155000000000000471e-01,6.311666666666634895e-02,1.514166666666695582e-02,1.790833333333335248e-02
-1.260833333333327352e-02,6.615833333333337452e-02,9.455833333333323043e-02,5.059166666666705531e-02,2.750000000000113465e-03,1.800833333333335534e-02
-2.099999999999991457e-02,4.946666666666676287e-02,7.360833333333352546e-02,4.640833333333306554e-02,1.120833333333297321e-02,3.478333333333329808e-02
-4.187500000000005801e-02,2.442500000000018268e-02,4.431666666666674026e-02,3.805000000000020866e-02,1.132499999999964091e-02,4.320833333333327225e-02
-5.025833333333336317e-02,-8.950000000000145339e-03,2.336666666666659467e-02,3.802500000000020447e-02,1.561666666666695902e-02,5.163333333333323949e-02
-5.447500000000023157e-02,-2.983333333333318405e-02,2.391666666666888985e-03,2.132500000000026735e-02,3.225000000000116662e-03,4.753333333333347593e-02
-4.202500000000005537e-02,-2.155833333333321417e-02,2.241666666666884689e-03,2.543333333333336332e-02,1.997500000000006215e-02,4.755833333333347318e-02
-3.374166666666675307e-02,-1.743333333333345336e-02,1.042500000000018759e-02,3.373333333333378148e-02,4.091666666666643470e-02,5.175833333333323960e-02
-2.545833333333345078e-02,-4.983333333333270221e-03,2.278333333333325272e-02,4.204166666666663693e-02,4.519166666666708798e-02,5.600000000000011219e-02
-1.301666666666660872e-02,-8.583333333335024795e-04,1.430833333333328405e-02,2.535000000000003223e-02,2.030000000000005411e-02,3.525833333333329433e-02
3.599999999999999034e-03,-9.000000000001714962e-04,5.841666666666647800e-03,4.475000000000325939e-03,-1.293333333333315793e-02,1.033333333333338530e-02
1.605833333333351459e-02,-5.108333333333270332e-03,-2.624999999999991923e-03,-1.223333333333294880e-02,-3.363333333333375086e-02,-1.043333333333342806e-02
2.849999999999991429e-02,-5.158333333333264825e-03,-6.933333333333530774e-03,-1.644166666666693408e-02,-4.184999999999994280e-02,-2.704166666666670341e-02
3.261666666666678677e-02,-1.041666666666843377e-03,-1.540833333333349944e-02,-2.897499999999955667e-02,-4.593333333333304846e-02,-3.532500000000000223e-02
4.090833333333342842e-02,3.075000000000036038e-03,-1.970833333333326179e-02,-3.318333333333354368e-02,-5.835833333333323436e-02,-4.361666666666664388e-02
3.669999999999988549e-02,3.033333333333373960e-03,-1.985833333333326262e-02,-3.739166666666663558e-02,-6.660833333333363027e-02,-4.775833333333351360e-02
3.665833333333321647e-02,-1.200000000000173150e-03,-2.000833333333325650e-02,-3.743333333333330459e-02,-7.068333333333340351e-02,-5.188333333333328135e-02
3.662499999999987987e-02,-1.266666666666832475e-03,-2.430000000000013052e-02,-3.745833333333330184e-02,-7.472499999999981934e-02,-5.596666666666682416e-02
4.075000000000009170e-02,-1.341666666666831154e-03,-2.444166666666679547e-02,-3.749166666666663844e-02,-7.464166666666649519e-02,-6.004999999999992288e-02
4.486666666666652009e-02,6.924999999999813249e-03,-2.460000000000013218e-02,-3.754999999999997229e-02,-6.213333333333299208e-02,-5.171666666666661222e-02
4.482499999999985801e-02,-1.458333333333491910e-03,-2.475000000000013647e-02,-3.761666666666664549e-02,-6.627500000000030589e-02,-4.755833333333351481e-02
4.061666666666675918e-02,-1.525000000000158173e-03,-3.324166666666676651e-02,-4.183333333333306980e-02,-7.455833333333317103e-02,-5.170833333333327980e-02
4.056666666666676468e-02,2.558333333333384640e-03,-3.340833333333343563e-02,-4.188333333333307124e-02,-7.865833333333294153e-02,-5.999999999999991451e-02
4.468333333333319307e-02,2.466666666666714192e-03,-3.359166666666676959e-02,-4.194999999999973750e-02,-8.278333333333358357e-02,-5.995833333333325244e-02
4.464999999999985647e-02,6.541666666666487440e-03,-3.379166666666676144e-02,-4.204166666666640101e-02,-7.442499999999983851e-02,-6.410000000000012910e-02
4.045000000000009005e-02,2.275000000000054756e-03,-2.981666666666656085e-02,-3.793333333333330504e-02,-7.854166666666625995e-02,-5.989166666666658617e-02
4.040000000000008862e-02,2.166666666666712537e-03,-3.417500000000010113e-02,-4.631666666666705429e-02,-8.682500000000001328e-02,-7.231666666666676513e-02
4.868333333333339785e-02,1.872499999999997777e-02,-3.438333333333343234e-02,-4.639166666666705990e-02,-9.094999999999976714e-02,-8.475833333333315789e-02
6.113333333333312997e-02,7.695833333333354509e-02,-5.433333333333314336e-03,-5.480833333333325064e-02,-1.242416666666663061e-01,-1.180250000000001576e-01
1.111000000000000598e-01,1.893500000000000183e-01,1.276833333333333154e-01,-7.166666666669988667e-04,-1.616916666666668445e-01,-1.846249999999999003e-01
8.607500000000015139e-02,2.017250000000002097e-01,2.482750000000002177e-01,1.408416666666662820e-01,-4.917500000000035038e-02,-1.179333333333334871e-01
-4.312500000000005218e-02,6.410000000000003195e-02,2.605249999999999511e-01,3.115666666666663254e-01,2.341833333333337430e-01,1.195916666666667766e-01
-2.348249999999998117e-01,-1.860333333333333006e-01,9.777499999999987590e-02,4.406250000000003220e-01,6.133500000000001728e-01,4.737666666666666138e-01
-5.098583333333335244e-01,-5.028416666666668533e-01,-1.733499999999998376e-01,5.946416666666670681e-01,1.138316666666666199e+00,9.987250000000000849e-01
-7.723916666666665876e-01,-7.696750000000001091e-01,-4.403249999999997999e-01,7.486416666666663167e-01,1.684116666666666262e+00,1.540358333333333274e+00
-9.849249999999998284e-01,-1.024016666666666797e+00,-8.239749999999997909e-01,7.609666666666664581e-01,2.067408333333333292e+00,1.940341666666666853e+00
-1.026608333333333345e+00,-1.220041666666666691e+00,-1.090974999999999584e+00,6.524499999999997524e-01,2.071524999999999839e+00,2.052824999999999900e+00
-8.141166666666668217e-01,-1.166058333333333419e+00,-1.182974999999999888e+00,3.147583333333336397e-01,1.463124999999999787e+00,1.656958333333333311e+00
-4.682916666666665506e-01,-8.495916666666667449e-01,-1.175000000000000266e+00,-2.229666666666668962e-01,5.296999999999996156e-01,9.277333333333331877e-01
-1.683166666666667255e-01,-4.914666666666666628e-01,-9.962083333333331403e-01,-5.231999999999999984e-01,-1.245416666666663286e-01,3.110166666666665525e-01
2.751666666666658517e-02,-2.125249999999998807e-01,-7.132583333333332165e-01,-4.984499999999996711e-01,-3.037833333333334607e-01,2.633333333333420616e-03
9.420000000000011697e-02,-8.774999999999986977e-02,-5.261749999999999483e-01,-4.028833333333331490e-01,-2.872000000000001774e-01,-8.075833333333339026e-02
6.922499999999977283e-02,-4.214999999999980568e-02,-3.849249999999999616e-01,-2.989916666666670442e-01,-2.372916666666670116e-01,-8.915000000000003477e-02
4.424166666666652648e-02,-1.322500000000013248e-02,-2.353500000000000592e-01,-1.909416666666670093e-01,-1.832583333333332176e-01,-9.756666666666666266e-02
4.426666666666652372e-02,-9.291666666666593966e-03,-1.274583333333333401e-01,-1.204083333333332562e-01,-1.500833333333333464e-01,-8.517499999999982030e-02
5.680833333333337037e-02,7.133333333333345683e-03,-5.705833333333337754e-02,-7.905833333333295299e-02,-1.294250000000003176e-01,-8.112500000000005818e-02
7.353333333333331168e-02,2.772500000000015230e-02,-1.999166666666662290e-02,-5.437500000000015932e-02,-1.129500000000003557e-01,-8.542499999999982052e-02
7.359166666666663859e-02,2.751666666666682109e-02,-1.626666666666685968e-02,-5.470833333333349757e-02,-1.131333333333336966e-01,-9.391666666666646790e-02
6.949166666666643788e-02,3.146666666666658035e-02,-1.251666666666664991e-02,-5.503333333333349647e-02,-1.174750000000001349e-01,-1.065666666666666429e-01
7.374166666666664982e-02,3.960833333333321077e-02,-4.600000000000012065e-03,-5.117500000000040072e-02,-1.218499999999999028e-01,-1.067166666666666403e-01
7.382499999999997398e-02,3.939999999999987956e-02,3.333333333333292348e-03,-4.732499999999974921e-02,-1.261999999999996458e-01,-1.027000000000002078e-01
7.390833333333331201e-02,3.505000000000011579e-02,1.129166666666659574e-02,-3.929166666666689123e-02,-1.263499999999996570e-01,-9.866666666666666641e-02
7.399166666666665004e-02,3.905833333333321583e-02,1.510833333333347003e-02,-3.539999999999957070e-02,-1.181750000000001133e-01,-9.463333333333312503e-02
7.406666666666664178e-02,4.309166666666675721e-02,1.478333333333347113e-02,-3.568333333333290058e-02,-1.142000000000003568e-01,-9.475833333333312514e-02
8.247499999999995113e-02,4.714166666666651934e-02,2.282500000000010909e-02,-3.178333333333314276e-02,-1.143666666666670328e-01,-9.072500000000002784e-02
7.839166666666684546e-02,4.290833333333343019e-02,2.258333333333344128e-02,-2.783333333333337656e-02,-1.186416666666667841e-01,-9.917499999999999927e-02
7.430833333333330959e-02,4.288333333333342601e-02,2.656666666666653714e-02,-2.800000000000004569e-02,-1.187416666666668008e-01,-9.508333333333313098e-02
7.439166666666664762e-02,4.289166666666676536e-02,3.060000000000007853e-02,-2.813333333333338168e-02,-1.104999999999997096e-01,-9.098333333333337436e-02
7.445833333333330695e-02,4.709999999999985032e-02,3.051666666666674396e-02,-2.407500000000028367e-02,-1.064166666666666178e-01,-8.687499999999982736e-02
7.866666666666685681e-02,5.135000000000006226e-02,3.465833333333317307e-02,-1.579999999999986970e-02,-9.810833333333376927e-02,-8.689999999999982461e-02
7.869166666666685406e-02,4.729999999999985605e-02,3.459999999999983922e-02,-1.588333333333320427e-02,-1.106499999999997208e-01,-9.112500000000003930e-02
7.039166666666643590e-02,4.326666666666675876e-02,3.033333333333341347e-02,-2.433333333333361631e-02,-1.232083333333332253e-01,-9.120000000000003104e-02
7.038333333333310349e-02,5.170833333333339776e-02,3.860833333333338335e-02,-1.606666666666653823e-02,-1.065583333333332827e-01,-7.869999999999985341e-02
6.617500000000001159e-02,4.761666666666652253e-02,4.272499999999981868e-02,-1.194166666666677395e-02,-8.986666666666667802e-02,-5.781666666666682164e-02
5.774166666666670500e-02,4.348333333333342932e-02,3.847500000000005083e-02,-1.198333333333343950e-02,-8.980000000000001870e-02,-6.608333333333345216e-02
5.762500000000003730e-02,4.761666666666652947e-02,3.840000000000005215e-02,-1.199166666666677192e-02,-8.969166666666669729e-02,-6.598333333333344930e-02
5.751666666666670202e-02,4.757499999999986739e-02,3.415833333333317956e-02,-1.198333333333343777e-02,-1.020750000000001934e-01,-7.835833333333318274e-02
6.159999999999980769e-02,4.754999999999987015e-02,3.827500000000005204e-02,-1.197500000000010535e-02,-1.228083333333332139e-01,-8.240000000000007041e-02
6.571666666666667322e-02,5.175000000000007372e-02,3.825000000000004785e-02,-1.194166666666677049e-02,-1.226749999999998952e-01,-8.225833333333339159e-02
6.983333333333310855e-02,5.179166666666674274e-02,4.659166666666668399e-02,-7.708333333333674403e-03,-1.100083333333330415e-01,-7.791666666666652308e-02
6.563333333333333519e-02,5.599166666666650916e-02,4.659166666666668399e-02,-3.491666666666356708e-03,-7.651666666666649685e-02,-6.525833333333345976e-02
5.729166666666669905e-02,4.768333333333320267e-02,4.238333333333314801e-02,-7.650000000000340555e-03,-6.390833333333299782e-02,-5.683333333333348558e-02
4.896666666666673468e-02,4.353333333333343769e-02,3.815000000000005193e-02,-7.666666666667007121e-03,-7.214166666666674277e-02,-6.511666666666679482e-02
4.897500000000006709e-02,4.354166666666677010e-02,4.224999999999981548e-02,-1.185833333333343592e-02,-8.870000000000001494e-02,-7.340833333333343647e-02
5.314166666666649691e-02,4.771666666666652540e-02,4.218333333333314922e-02,6.083333333334085824e-04,-8.442500000000024984e-02,-7.337500000000009293e-02
5.313333333333316449e-02,5.189166666666673866e-02,4.209166666666648571e-02,-3.591666666666352634e-03,-8.847500000000001197e-02,-6.914999999999989211e-02
5.311666666666649272e-02,5.190000000000007108e-02,4.199999999999981526e-02,-7.783333333333669612e-03,-8.838333333333334152e-02,-7.325000000000009281e-02
4.893333333333339807e-02,5.190833333333339655e-02,4.607500000000001872e-02,-7.816666666667004479e-03,-8.832500000000001461e-02,-7.318333333333343349e-02
5.310833333333316031e-02,6.025833333333337205e-02,4.181666666666648130e-02,-1.619999999999986381e-02,-1.007916666666668626e-01,-8.565833333333315591e-02
5.728333333333336663e-02,6.445833333333313153e-02,4.589166666666668476e-02,-1.208333333333343543e-02,-1.007833333333335163e-01,-8.148333333333339368e-02
5.312499999999983208e-02,6.449166666666647507e-02,4.580833333333335367e-02,-7.958333333333671156e-03,-9.661666666666708647e-02,-8.148333333333339368e-02
4.479999999999986077e-02,6.033333333333337767e-02,4.987500000000022471e-02,3.166666666667428132e-04,-9.661666666666710035e-02,-7.316666666666675478e-02
4.061666666666676612e-02,6.449999999999980749e-02,5.810000000000020010e-02,8.591666666666270338e-03,-8.826666666666668770e-02,-6.482500000000011864e-02
4.476666666666652417e-02,6.866666666666668140e-02,5.380833333333332608e-02,4.358333333333172521e-03,-8.823333333333334416e-02,-7.730833333333318735e-02
4.892500000000006566e-02,7.284166666666688772e-02,5.783333333333352810e-02,8.433333333332933626e-03,-8.820000000000001450e-02,-7.731666666666651977e-02
4.476666666666652417e-02,7.701666666666664995e-02,6.604166666666683172e-02,8.349999999999600797e-03,-9.233333333333310078e-02,-7.314166666666675753e-02
4.895833333333340226e-02,8.122500000000018594e-02,6.593333333333349644e-02,8.258333333332935552e-03,-9.647500000000042153e-02,-8.146666666666672885e-02
5.317499999999983351e-02,8.969166666666683607e-02,7.004166666666659935e-02,3.983333333333172188e-03,-9.234166666666644707e-02,-8.152500000000006963e-02
4.080833333333343249e-02,8.585833333333328654e-02,7.019999999999992912e-02,3.949999999999839057e-03,-8.824166666666667658e-02,-6.921666666666655143e-02
4.091666666666676777e-02,8.208333333333352189e-02,7.475833333333346820e-02,1.666666666666668378e-02,-7.564166666666649608e-02,-6.101666666666658023e-02
3.662499999999989375e-02,9.054166666666682572e-02,7.931666666666657706e-02,2.549166666666709963e-02,-6.262499999999965317e-02,-5.244999999999994805e-02
3.614166666666655814e-02,9.434166666666657375e-02,9.185833333333341677e-02,3.452499999999995850e-02,-5.728333333333322785e-02,-5.571666666666681700e-02
3.931666666666676357e-02,9.755000000000012272e-02,1.080083333333333589e-01,3.964166666666638777e-02,-4.264999999999971592e-02,-3.716666666666687546e-02
3.359166666666655449e-02,9.186666666666659653e-02,1.027083333333331516e-01,4.920000000000013252e-02,-3.526666666666661287e-02,-3.005000000000000726e-02
2.739166666666679323e-02,9.400833333333345754e-02,9.662500000000004419e-02,3.796666666666662776e-02,-3.961666666666702891e-02,-3.878333333333351673e-02
2.522500000000012579e-02,9.991666666666676466e-02,1.025750000000000134e-01,4.333333333333305726e-02,-3.956666666666679155e-02,-3.879166666666661323e-02
1.504166666666682112e-02,1.016666666666665303e-01,1.125666666666668564e-01,6.909166666666674561e-02,-1.530833333333375679e-02,-1.017500000000003471e-02
5.550000000000184126e-03,1.123583333333333795e-01,1.351166666666667737e-01,9.387500000000043032e-02,7.225000000000163583e-03,8.783333333333243759e-03
8.833333333333102076e-04,1.154583333333331491e-01,1.454499999999998572e-01,1.095250000000003721e-01,1.150833333333325936e-02,1.388333333333344882e-02
8.499999999999770760e-04,1.149916666666664783e-01,1.396500000000000796e-01,1.042333333333330531e-01,6.800000000000165287e-03,9.824999999999910194e-03
1.008333333333310969e-03,1.106583333333333863e-01,1.384583333333334054e-01,1.032999999999997254e-01,1.870833333333367723e-02,1.385833333333345505e-02
-3.016666666666896479e-03,1.189583333333333603e-01,1.500916666666664845e-01,1.150999999999998968e-01,3.910833333333338380e-02,3.036666666666672579e-02
-7.091666666666660186e-03,1.189833333333333576e-01,1.662333333333335383e-01,1.354749999999995957e-01,5.132500000000023155e-02,5.105000000000020632e-02
-1.117500000000020040e-02,1.190166666666666873e-01,1.700999999999999734e-01,1.476666666666664463e-01,7.614999999999969016e-02,7.592500000000011739e-02
-2.356666666666660040e-02,1.107416666666667104e-01,1.574333333333335638e-01,1.474499999999997757e-01,9.685833333333361550e-02,8.413333333333342101e-02
-2.760833333333347420e-02,1.066749999999998394e-01,1.489999999999998270e-01,1.472749999999997672e-01,9.255833333333296498e-02,7.982499999999988216e-02
-3.580833333333344193e-02,1.026166666666667449e-01,1.447583333333333777e-01,1.470916666666664541e-01,9.656666666666693932e-02,8.800833333333318853e-02
-4.400833333333341313e-02,9.856666666666652477e-02,1.488666666666664806e-01,1.552500000000001934e-01,1.005416666666667097e-01,1.003333333333333577e-01
-4.801666666666651317e-02,9.036666666666656744e-02,1.488583333333331482e-01,1.551083333333335146e-01,1.045499999999998098e-01,1.043249999999997929e-01
-4.368333333333341423e-02,8.634166666666678869e-02,1.447083333333333832e-01,1.424833333333333507e-01,9.188333333333295605e-02,9.165000000000005087e-02
-4.351666666666674510e-02,8.231666666666659360e-02,1.447416666666667129e-01,1.423666666666666969e-01,8.756666666666652887e-02,9.151666666666671834e-02
-4.336666666666674774e-02,7.827500000000016389e-02,1.405916666666665038e-01,1.422416666666666829e-01,9.157499999999962892e-02,9.552499999999981839e-02
-4.738333333333317327e-02,7.006666666666686027e-02,1.281333333333334323e-01,1.421333333333333615e-01,9.142499999999963156e-02,8.704999999999984972e-02
-4.723333333333317591e-02,6.187500000000022149e-02,1.240416666666665640e-01,1.295666666666664968e-01,9.130833333333296387e-02,9.944166666666669208e-02
-4.707499999999983920e-02,4.953333333333337363e-02,1.074666666666666270e-01,1.253333333333334076e-01,8.704166666666653118e-02,9.102500000000005032e-02
-3.859999999999987053e-02,3.718333333333319335e-02,8.671666666666648371e-02,1.086000000000001270e-01,7.445833333333301551e-02,7.427500000000011871e-02
-2.596666666666680445e-02,2.898333333333322215e-02,7.010833333333320316e-02,7.518333333333358792e-02,3.685000000000004244e-02,4.082499999999979201e-02
-2.582500000000013604e-02,2.078333333333325095e-02,5.767500000000013588e-02,7.094999999999959672e-02,4.089166666666647215e-02,3.652500000000002967e-02
-2.152499999999992614e-02,1.675000000000015365e-02,5.358333333333326759e-02,7.505000000000025540e-02,4.493333333333290186e-02,5.304999999999997218e-02
-2.139166666666659361e-02,8.566666666666847285e-03,4.533333333333329496e-02,6.250000000000006939e-02,3.651666666666671113e-02,4.876666666666687466e-02
-2.124999999999992867e-02,3.916666666668733310e-04,3.293333333333356427e-02,4.578333333333346744e-02,1.562500000000033654e-02,2.782500000000005802e-02
-1.696666666666683115e-02,-3.633333333333321757e-03,1.220000000000008231e-02,2.490000000000042873e-02,-1.099999999999604766e-03,1.521666666666654857e-02
