0.0025,1.0245,0,0,1,0,0
0.005,1.0081,0,0,0,0,0
0.0075,0.96635,0,0,0,0,0
0.01,0.90098,0,0,0,0,0
0.0125,0.81624,0,0,0,0,0
0.015,0.71744,0,0,0,0,0
0.0175,0.60955,0,0,0,0,0
0.02,0.49723,0,0,0,0,0
0.0225,0.38483,0,0,0,0,0
0.025,0.27637,0,0,0,0,0
0.0275,0.17557,0,0,0,0,0
0.03,0.085396,0,0,0,0,0
0.0325,0.0071556,0,0,0,0,0
0.035,-0.058427,0,0,0,0,0
0.0375,-0.111,0,0,0,0,0
0.04,-0.15059,0,0,0,0,0
0.0425,-0.1776,0,0,0,0,0
0.045,-0.19281,0,0,0,0,0
0.0475,-0.19737,0,0,0,1,0
0.05,-0.1928,0,0,0,0,0
0.0525,-0.18099,0,0,0,0,0
0.055,-0.16353,0,0,0,0,0
0.0575,-0.14227,0,0,0,0,0
0.06,-0.11897,0,0,0,0,0
0.0625,-0.09511,0,0,0,0,0
0.065,-0.071896,0,0,0,0,0
0.0675,-0.050269,0,0,0,0,0
0.07,-0.030891,0,0,0,0,0
0.0725,-0.014153,0,0,0,0,0
0.075,-0.00017411,0,0,0,0,0
0.0775,0.011201,0,0,0,0,0
0.08,0.020338,0,0,0,0,0
0.0825,0.027496,0,0,0,0,0
0.085,0.033024,0,0,0,0,0
0.0875,0.037253,0,0,0,0,0
0.09,0.040481,0,0,0,0,0
0.0925,0.042969,0,0,0,0,0
0.095,0.044941,0,0,0,0,0
0.0975,0.046587,0,0,0,0,0
0.1,0.048061,0,0,0,0,0
0.1025,0.04948,0,0,0,0,0
0.105,0.050928,0,0,0,0,0
0.1075,0.052449,0,0,0,0,0
0.11,0.054056,0,0,0,0,0
0.1125,0.055722,0,0,0,0,0
0.115,0.057429,0,0,0,0,0
0.1175,0.059244,0,0,0,0,0
0.12,0.061177,0,0,0,0,0
0.1225,0.06324,0,0,0,0,0
0.125,0.065441,0,0,0,0,0
0.1275,0.067789,0,0,0,0,0
0.13,0.070293,0,0,0,0,0
0.1325,0.072962,0,0,0,0,0
0.135,0.075804,0,0,0,0,0
0.1375,0.078829,0,0,0,0,0
0.14,0.082044,0,0,0,0,0
0.1425,0.085457,0,0,0,0,0
0.145,0.089076,0,0,0,0,0
0.1475,0.092909,0,0,0,0,0
0.15,0.096964,0,0,0,0,0
0.1525,0.10125,0,0,0,0,0
0.155,0.10577,0,0,0,0,0
0.1575,0.11052,0,0,0,0,0
0.16,0.11551,0,0,0,0,0
0.1625,0.12076,0,0,0,0,0
0.165,0.12626,0,0,0,0,0
0.1675,0.13201,0,0,0,0,0
0.17,0.13803,0,0,0,0,0
0.1725,0.14431,0,0,0,0,0
0.175,0.15085,0,0,0,0,0
0.1775,0.15765,0,0,0,0,0
0.18,0.1647,0,0,0,0,0
0.1825,0.17201,0,0,0,0,0
0.185,0.17955,0,0,0,0,0
0.1875,0.18733,0,0,0,0,0
0.19,0.19534,0,0,0,0,0
0.1925,0.20355,0,0,0,0,0
0.195,0.21196,0,0,0,0,0
0.1975,0.22056,0,0,0,0,0
0.2,0.22932,0,0,0,0,0
0.2025,0.23823,0,0,0,0,0
0.205,0.24727,0,0,0,0,0
0.2075,0.25642,0,0,0,0,0
0.21,0.26565,0,0,0,0,0
0.2125,0.27494,0,0,0,0,0
0.215,0.28426,0,0,0,0,0
0.2175,0.2936,0,0,0,0,0
0.22,0.30294,0,0,0,0,0
0.2225,0.31224,0,0,0,0,0
0.225,0.32146,0,0,0,0,0
0.2275,0.33056,0,0,0,0,0
0.23,0.33952,0,0,0,0,0
0.2325,0.34828,0,0,0,0,0
0.235,0.35683,0,0,0,0,0
0.2375,0.36513,0,0,0,0,0
0.24,0.37315,0,0,0,0,0
0.2425,0.38085,0,0,0,0,0
0.245,0.38821,0,0,0,0,0
0.2475,0.3952,0,0,0,0,0
0.25,0.4018,0,0,0,0,0
0.2525,0.40798,0,0,0,0,0
0.255,0.4137,0,0,0,0,0
0.2575,0.41897,0,0,0,0,0
0.26,0.42373,0,0,0,0,0
0.2625,0.42799,0,0,0,0,0
0.265,0.43172,0,0,0,0,0
0.2675,0.43489,0,0,0,0,0
0.27,0.4375,0,0,0,0,0
0.2725,0.43952,0,0,0,0,0
0.275,0.44094,0,0,0,0,0
0.2775,0.44174,0,0,0,0,0
0.28,0.44191,0,0,0,0,1
0.2825,0.44144,0,0,0,0,0
0.285,0.44034,0,0,0,0,0
0.2875,0.43863,0,0,0,0,0
0.29,0.43633,0,0,0,0,0
0.2925,0.43344,0,0,0,0,0
0.295,0.43,0,0,0,0,0
0.2975,0.42601,0,0,0,0,0
0.3,0.4215,0,0,0,0,0
0.3025,0.41648,0,0,0,0,0
0.305,0.41098,0,0,0,0,0
0.3075,0.40502,0,0,0,0,0
0.31,0.39862,0,0,0,0,0
0.3125,0.3918,0,0,0,0,0
0.315,0.38459,0,0,0,0,0
0.3175,0.37702,0,0,0,0,0
0.32,0.36911,0,0,0,0,0
0.3225,0.36088,0,0,0,0,0
0.325,0.35237,0,0,0,0,0
0.3275,0.34361,0,0,0,0,0
0.33,0.33462,0,0,0,0,0
0.3325,0.32544,0,0,0,0,0
0.335,0.31609,0,0,0,0,0
0.3375,0.30661,0,0,0,0,0
0.34,0.29704,0,0,0,0,0
0.3425,0.28741,0,0,0,0,0
0.345,0.27775,0,0,0,0,0
0.3475,0.2681,0,0,0,0,0
0.35,0.2585,0,0,0,0,0
0.3525,0.24898,0,0,0,0,0
0.355,0.23959,0,0,0,0,0
0.3575,0.23035,0,0,0,0,0
0.36,0.22127,0,0,0,0,0
0.3625,0.21236,0,0,0,0,0
0.365,0.20364,0,0,0,0,0
0.3675,0.19512,0,0,0,0,0
0.37,0.18682,0,0,0,0,0
0.3725,0.17875,0,0,0,0,0
0.375,0.17093,0,0,0,0,0
0.3775,0.16335,0,0,0,0,0
0.38,0.15605,0,0,0,0,0
0.3825,0.14901,0,0,0,0,0
0.385,0.14225,0,0,0,0,0
0.3875,0.13577,0,0,0,0,0
0.39,0.12958,0,0,0,0,0
0.3925,0.12367,0,0,0,0,0
0.395,0.11806,0,0,0,0,0
0.3975,0.11274,0,0,0,0,0
0.4,0.10771,0,0,0,0,0
0.4025,0.10296,0,0,0,0,0
0.405,0.098497,0,0,0,0,0
0.4075,0.094309,0,0,0,0,0
0.41,0.09039,0,0,0,0,0
0.4125,0.086734,0,0,0,0,0
0.415,0.083329,0,0,0,0,0
0.4175,0.080166,0,0,0,0,0
0.42,0.077232,0,0,0,0,0
0.4225,0.074515,0,0,0,0,0
0.425,0.072011,0,0,0,0,0
0.4275,0.069716,0,0,0,0,0
0.43,0.067619,0,0,0,0,0
0.4325,0.065711,0,0,0,0,0
0.435,0.06398,0,0,0,0,0
0.4375,0.062418,0,0,0,0,0
0.44,0.061015,0,0,0,0,0
0.4425,0.059761,0,0,0,0,0
0.445,0.058648,0,0,0,0,0
0.4475,0.057668,0,0,0,0,0
0.45,0.056812,0,0,0,0,0
0.4525,0.056072,0,0,0,0,0
0.455,0.05544,0,0,0,0,0
0.4575,0.054909,0,0,0,0,0
0.46,0.054473,0,0,0,0,0
0.4625,0.054123,0,0,0,0,0
0.465,0.053855,0,0,0,0,0
0.4675,0.053661,0,0,0,0,0
0.47,0.053535,0,0,0,0,0
0.4725,0.053473,0,0,0,0,0
0.475,0.053469,0,0,0,0,0
0.4775,0.053517,0,0,0,0,0
0.48,0.053614,0,0,0,0,0
0.4825,0.053754,0,0,0,0,0
0.485,0.053934,0,0,0,0,0
0.4875,0.05415,0,0,0,0,0
0.49,0.054398,0,0,0,0,0
0.4925,0.054681,0,0,0,0,0
0.495,0.055001,0,0,0,0,0
0.4975,0.055356,0,0,0,0,0
0.5,0.05574,0,0,0,0,0
0.5025,0.056151,0,0,0,0,0
0.505,0.056587,0,0,0,0,0
0.5075,0.057043,0,0,0,0,0
0.51,0.057518,0,0,0,0,0
0.5125,0.058008,0,0,0,0,0
0.515,0.058512,0,0,0,0,0
0.5175,0.059026,0,0,0,0,0
0.52,0.059549,0,0,0,0,0
0.5225,0.060079,0,0,0,0,0
0.525,0.060614,0,0,0,0,0
0.5275,0.061152,0,0,0,0,0
0.53,0.061691,0,0,0,0,0
0.5325,0.062231,0,0,0,0,0
0.535,0.06277,0,0,0,0,0
0.5375,0.063307,0,0,0,0,0
0.54,0.063842,0,0,0,0,0
0.5425,0.064372,0,0,0,0,0
0.545,0.064899,0,0,0,0,0
0.5475,0.065421,0,0,0,0,0
0.55,0.065939,0,0,0,0,0
0.5525,0.066452,0,0,0,0,0
0.555,0.06696,0,0,0,0,0
0.5575,0.067463,0,0,0,0,0
0.56,0.067963,0,0,0,0,0
0.5625,0.068458,0,0,0,0,0
0.565,0.068951,0,0,0,0,0
0.5675,0.069442,0,0,0,0,0
0.57,0.069933,0,0,0,0,0
0.5725,0.070423,0,0,0,0,0
0.575,0.070915,0,0,0,0,0
0.5775,0.07141,0,0,0,0,0
0.58,0.071908,0,0,0,0,0
0.5825,0.072408,0,0,0,0,0
0.585,0.072909,0,0,0,0,0
0.5875,0.073409,0,0,0,0,0
0.59,0.073909,0,0,0,0,0
0.5925,0.074409,0,0,0,0,0
0.595,0.074907,0,0,0,0,0
0.5975,0.075405,0,0,0,0,0
0.6,0.075901,0,0,0,0,0
0.6025,0.076396,0,0,0,0,0
0.605,0.076889,0,0,0,0,0
0.6075,0.077381,0,0,0,0,0
0.61,0.077872,0,0,0,0,0
0.6125,0.07836,0,0,0,0,0
0.615,0.078848,0,0,0,0,0
0.6175,0.079333,0,0,0,0,0
0.62,0.079818,0,0,0,0,0
0.6225,0.080302,0,0,0,0,0
0.625,0.080784,0,0,0,0,0
0.6275,0.081267,0,0,0,0,0
0.63,0.081749,0,0,0,0,0
0.6325,0.082231,0,0,0,0,0
0.635,0.082714,0,0,0,0,0
0.6375,0.083198,0,0,0,0,0
0.64,0.083684,0,0,0,0,0
0.6425,0.084171,0,0,0,0,0
0.645,0.084661,0,0,0,0,0
0.6475,0.085155,0,0,0,0,0
0.65,0.085652,0,0,0,0,0
0.6525,0.086154,0,0,0,0,0
0.655,0.086661,0,0,0,0,0
0.6575,0.087175,0,0,0,0,0
0.66,0.087695,0,0,0,0,0
0.6625,0.088223,0,0,0,0,0
0.665,0.088759,0,0,0,0,0
0.6675,0.089286,0,0,0,0,0
0.67,0.089805,0,0,0,0,0
0.6725,0.090325,0,0,0,0,0
0.675,0.090859,0,0,0,0,0
0.6775,0.091418,0,0,0,0,0
0.68,0.092013,0,0,0,0,0
0.6825,0.092656,0,0,0,0,0
0.685,0.09336,0,0,0,0,0
0.6875,0.094136,0,0,0,0,0
0.69,0.094998,0,0,0,0,0
0.6925,0.095958,0,0,0,0,0
0.695,0.09703,0,0,0,0,0
0.6975,0.098226,0,0,0,0,0
0.7,0.09956,0,0,0,0,0
0.7025,0.10105,0,0,0,0,0
0.705,0.1027,0,0,0,0,0
0.7075,0.10453,0,0,0,0,0
0.71,0.10656,0,0,0,0,0
0.7125,0.10879,0,0,0,0,0
0.715,0.11125,0,0,0,0,0
0.7175,0.11395,0,0,0,0,0
0.72,0.11691,0,0,0,0,0
0.7225,0.12013,0,0,0,0,0
0.725,0.12364,0,0,0,0,0
0.7275,0.12746,0,0,0,0,0
0.73,0.13159,0,0,0,0,0
0.7325,0.13606,0,0,0,0,0
0.735,0.14088,0,0,0,0,0
0.7375,0.14607,0,0,0,0,0
0.74,0.15164,0,0,0,0,0
0.7425,0.15762,0,0,0,0,0
0.745,0.16402,0,0,0,0,0
0.7475,0.17087,0,0,0,0,0
0.75,0.17817,0,0,0,0,0
0.7525,0.186,0,0,0,0,0
0.755,0.19444,0,0,0,0,0
0.7575,0.20337,0,0,0,0,0
0.76,0.21269,0,0,0,0,0
0.7625,0.22229,0,0,0,0,0
0.765,0.23207,0,0,0,0,0
0.7675,0.24193,0,0,0,0,0
0.77,0.2518,0,0,0,0,0
0.7725,0.26157,0,0,0,0,0
0.775,0.27116,0,0,0,0,0
0.7775,0.28051,0,0,0,0,0
0.78,0.28953,0,0,0,0,0
0.7825,0.29816,0,0,0,0,0
0.785,0.30633,0,0,0,0,0
0.7875,0.31399,0,0,0,0,0
0.79,0.32107,0,0,0,0,0
0.7925,0.32753,0,0,0,0,0
0.795,0.33331,0,0,0,0,0
0.7975,0.33838,0,0,0,0,0
0.8,0.34271,0,0,0,0,0
0.8025,0.34624,0,0,0,0,0
0.805,0.34896,0,0,0,0,0
0.8075,0.35085,0,0,0,0,0
0.81,0.35187,0,0,0,0,0
0.8125,0.35202,1,0,0,0,0
0.815,0.35129,0,0,0,0,0
0.8175,0.34966,0,0,0,0,0
0.82,0.34713,0,0,0,0,0
0.8225,0.34372,0,0,0,0,0
0.825,0.33941,0,0,0,0,0
0.8275,0.33423,0,0,0,0,0
0.83,0.32818,0,0,0,0,0
0.8325,0.32134,0,0,0,0,0
0.835,0.31383,0,0,0,0,0
0.8375,0.30575,0,0,0,0,0
0.84,0.29722,0,0,0,0,0
0.8425,0.28833,0,0,0,0,0
0.845,0.27918,0,0,0,0,0
0.8475,0.26985,0,0,0,0,0
0.85,0.26044,0,0,0,0,0
0.8525,0.25101,0,0,0,0,0
0.855,0.24164,0,0,0,0,0
0.8575,0.2324,0,0,0,0,0
0.86,0.22334,0,0,0,0,0
0.8625,0.21451,0,0,0,0,0
0.865,0.20597,0,0,0,0,0
0.8675,0.19775,0,0,0,0,0
0.87,0.1899,0,0,0,0,0
0.8725,0.18243,0,0,0,0,0
0.875,0.17539,0,0,0,0,0
0.8775,0.16878,0,0,0,0,0
0.88,0.16261,0,0,0,0,0
0.8825,0.1569,0,0,0,0,0
0.885,0.15164,0,0,0,0,0
0.8875,0.14683,0,0,0,0,0
0.89,0.14246,0,0,0,0,0
0.8925,0.13851,0,0,0,0,0
0.895,0.13496,0,0,0,0,0
0.8975,0.13177,0,0,0,0,0
0.9,0.12893,0,0,0,0,0
0.9025,0.12639,0,0,0,0,0
0.905,0.12415,0,0,0,0,0
0.9075,0.12216,0,0,0,0,0
0.91,0.12039,0,0,0,0,0
0.9125,0.11876,0,0,0,0,0
0.915,0.11718,0,0,0,0,0
0.9175,0.11555,0,0,0,0,0
0.92,0.11375,0,0,0,0,0
0.9225,0.11166,0,0,0,0,0
0.925,0.10904,0,0,0,0,0
0.9275,0.10562,0,0,0,0,0
0.93,0.10117,0,0,0,0,0
0.9325,0.095485,0,0,0,0,0
0.935,0.088381,0,0,0,0,0
0.9375,0.079711,0,0,0,0,0
0.94,0.069354,0,0,0,0,0
0.9425,0.057246,0,0,0,0,0
0.945,0.043721,0,0,0,0,0
0.9475,0.029368,0,0,0,0,0
0.95,0.014913,0,0,0,0,0
0.9525,0.0012137,0,0,0,0,0
0.955,-0.010733,0,0,0,0,0
0.9575,-0.019798,0,0,0,0,0
0.96,-0.024716,0,1,0,0,0
0.9625,-0.024087,0,0,0,0,0
0.965,-0.016374,0,0,0,0,0
0.9675,-0.00040679,0,0,0,0,0
0.97,0.024911,0,0,0,0,0
0.9725,0.0611,0,0,0,0,0
0.975,0.10909,0,0,0,0,0
0.9775,0.16919,0,0,0,0,0
0.98,0.24114,0,0,0,0,0
0.9825,0.32405,0,0,0,0,0
0.985,0.41643,0,0,0,0,0
0.9875,0.5162,0,0,0,0,0
0.99,0.62067,0,0,0,0,0
0.9925,0.72597,0,0,0,0,0
0.995,0.82708,0,0,0,0,0
0.9975,0.91895,0,0,0,0,0
1,0.99656,0,0,0,0,0
1.0025,1.0551,0,0,0,0,0
1.005,1.0908,0,0,0,0,0
1.0075,1.1009,0,0,1,0,0
1.01,1.084,0,0,0,0,0
1.0125,1.0407,0,0,0,0,0
1.015,0.97367,0,0,0,0,0
1.0175,0.88728,0,0,0,0,0
1.02,0.78647,0,0,0,0,0
1.0225,0.67659,0,0,0,0,0
1.025,0.56333,0,0,0,0,0
1.0275,0.45178,0,0,0,0,0
1.03,0.34584,0,0,0,0,0
1.0325,0.24868,0,0,0,0,0
1.035,0.1627,0,0,0,0,0
1.0375,0.089566,0,0,0,0,0
1.04,0.030188,0,0,0,0,0
1.0425,-0.015274,0,0,0,0,0
1.045,-0.047407,0,0,0,0,0
1.0475,-0.066783,0,0,0,0,0
1.05,-0.074607,0,0,0,1,0
1.0525,-0.072832,0,0,0,0,0
1.055,-0.063322,0,0,0,0,0
1.0575,-0.047846,0,0,0,0,0
1.06,-0.02808,0,0,0,0,0
1.0625,-0.0056078,0,0,0,0,0
1.065,0.018079,0,0,0,0,0
1.0675,0.041583,0,0,0,0,0
1.07,0.063598,0,0,0,0,0
1.0725,0.082979,0,0,0,0,0
1.075,0.099458,0,0,0,0,0
1.0775,0.11322,0,0,0,0,0
1.08,0.12447,0,0,0,0,0
1.0825,0.13345,0,0,0,0,0
1.085,0.14043,0,0,0,0,0
1.0875,0.14571,0,0,0,0,0
1.09,0.1496,0,0,0,0,0
1.0925,0.15248,0,0,0,0,0
1.095,0.15473,0,0,0,0,0
1.0975,0.15662,0,0,0,0,0
1.1,0.15824,0,0,0,0,0
1.1025,0.15971,0,0,0,0,0
1.105,0.16109,0,0,0,0,0
1.1075,0.16246,0,0,0,0,0
1.11,0.16387,0,0,0,0,0
1.1125,0.16537,0,0,0,0,0
1.115,0.16697,0,0,0,0,0
1.1175,0.1687,0,0,0,0,0
1.12,0.17054,0,0,0,0,0
1.1225,0.1725,0,0,0,0,0
1.125,0.1746,0,0,0,0,0
1.1275,0.17685,0,0,0,0,0
1.13,0.17926,0,0,0,0,0
1.1325,0.18184,0,0,0,0,0
1.135,0.1846,0,0,0,0,0
1.1375,0.18755,0,0,0,0,0
1.14,0.19069,0,0,0,0,0
1.1425,0.19404,0,0,0,0,0
1.145,0.1976,0,0,0,0,0
1.1475,0.20139,0,0,0,0,0
1.15,0.2054,0,0,0,0,0
1.1525,0.20966,0,0,0,0,0
1.155,0.21415,0,0,0,0,0
1.1575,0.21889,0,0,0,0,0
1.16,0.22389,0,0,0,0,0
1.1625,0.22915,0,0,0,0,0
1.165,0.23468,0,0,0,0,0
1.1675,0.24047,0,0,0,0,0
1.17,0.24654,0,0,0,0,0
1.1725,0.25288,0,0,0,0,0
1.175,0.25949,0,0,0,0,0
1.1775,0.26636,0,0,0,0,0
1.18,0.27348,0,0,0,0,0
1.1825,0.28086,0,0,0,0,0
1.185,0.28848,0,0,0,0,0
1.1875,0.29634,0,0,0,0,0
1.19,0.30441,0,0,0,0,0
1.1925,0.31269,0,0,0,0,0
1.195,0.32117,0,0,0,0,0
1.1975,0.32982,0,0,0,0,0
1.2,0.33862,0,0,0,0,0
1.2025,0.34758,0,0,0,0,0
1.205,0.35668,0,0,0,0,0
1.2075,0.36588,0,0,0,0,0
1.21,0.37515,0,0,0,0,0
1.2125,0.38445,0,0,0,0,0
1.215,0.39374,0,0,0,0,0
1.2175,0.40299,0,0,0,0,0
1.22,0.41216,0,0,0,0,0
1.2225,0.42123,0,0,0,0,0
1.225,0.43016,0,0,0,0,0
1.2275,0.43891,0,0,0,0,0
1.23,0.44745,0,0,0,0,0
1.2325,0.45576,0,0,0,0,0
1.235,0.46379,0,0,0,0,0
1.2375,0.47153,0,0,0,0,0
1.24,0.47893,0,0,0,0,0
1.2425,0.48598,0,0,0,0,0
1.245,0.49264,0,0,0,0,0
1.2475,0.49888,0,0,0,0,0
1.25,0.50468,0,0,0,0,0
1.2525,0.51,0,0,0,0,0
1.255,0.51483,0,0,0,0,0
1.2575,0.51914,0,0,0,0,0
1.26,0.52289,0,0,0,0,0
1.2625,0.52607,0,0,0,0,0
1.265,0.52865,0,0,0,0,0
1.2675,0.53061,0,0,0,0,0
1.27,0.53192,0,0,0,0,0
1.2725,0.53257,0,0,0,0,1
1.275,0.53256,0,0,0,0,0
1.2775,0.53191,0,0,0,0,0
1.28,0.53062,0,0,0,0,0
1.2825,0.52871,0,0,0,0,0
1.285,0.5262,0,0,0,0,0
1.2875,0.52309,0,0,0,0,0
1.29,0.51941,0,0,0,0,0
1.2925,0.51517,0,0,0,0,0
1.295,0.51039,0,0,0,0,0
1.2975,0.5051,0,0,0,0,0
1.3,0.49931,0,0,0,0,0
1.3025,0.49304,0,0,0,0,0
1.305,0.48633,0,0,0,0,0
1.3075,0.47919,0,0,0,0,0
1.31,0.47165,0,0,0,0,0
1.3125,0.46374,0,0,0,0,0
1.315,0.45549,0,0,0,0,0
1.3175,0.44693,0,0,0,0,0
1.32,0.43809,0,0,0,0,0
1.3225,0.429,0,0,0,0,0
1.325,0.4197,0,0,0,0,0
1.3275,0.41022,0,0,0,0,0
1.33,0.4006,0,0,0,0,0
1.3325,0.39087,0,0,0,0,0
1.335,0.38108,0,0,0,0,0
1.3375,0.37126,0,0,0,0,0
1.34,0.36146,0,0,0,0,0
1.3425,0.35172,0,0,0,0,0
1.345,0.34208,0,0,0,0,0
1.3475,0.33258,0,0,0,0,0
1.35,0.32323,0,0,0,0,0
1.3525,0.31404,0,0,0,0,0
1.355,0.30502,0,0,0,0,0
1.3575,0.29621,0,0,0,0,0
1.36,0.28761,0,0,0,0,0
1.3625,0.27923,0,0,0,0,0
1.365,0.2711,0,0,0,0,0
1.3675,0.26323,0,0,0,0,0
1.37,0.25562,0,0,0,0,0
1.3725,0.24828,0,0,0,0,0
1.375,0.24123,0,0,0,0,0
1.3775,0.23447,0,0,0,0,0
1.38,0.228,0,0,0,0,0
1.3825,0.22183,0,0,0,0,0
1.385,0.21596,0,0,0,0,0
1.3875,0.21038,0,0,0,0,0
1.39,0.20511,0,0,0,0,0
1.3925,0.20014,0,0,0,0,0
1.395,0.19545,0,0,0,0,0
1.3975,0.19106,0,0,0,0,0
1.4,0.18694,0,0,0,0,0
1.4025,0.1831,0,0,0,0,0
1.405,0.17952,0,0,0,0,0
1.4075,0.17619,0,0,0,0,0
1.41,0.17311,0,0,0,0,0
1.4125,0.17024,0,0,0,0,0
1.415,0.16759,0,0,0,0,0
1.4175,0.16514,0,0,0,0,0
1.42,0.1629,0,0,0,0,0
1.4225,0.16085,0,0,0,0,0
1.425,0.15898,0,0,0,0,0
1.4275,0.15728,0,0,0,0,0
1.43,0.15574,0,0,0,0,0
1.4325,0.15436,0,0,0,0,0
1.435,0.15311,0,0,0,0,0
1.4375,0.152,0,0,0,0,0
1.44,0.15101,0,0,0,0,0
1.4425,0.15013,0,0,0,0,0
1.445,0.14936,0,0,0,0,0
1.4475,0.14869,0,0,0,0,0
1.45,0.14811,0,0,0,0,0
1.4525,0.14761,0,0,0,0,0
1.455,0.1472,0,0,0,0,0
1.4575,0.14685,0,0,0,0,0
1.46,0.14657,0,0,0,0,0
1.4625,0.14635,0,0,0,0,0
1.465,0.14618,0,0,0,0,0
1.4675,0.14606,0,0,0,0,0
1.47,0.14598,0,0,0,0,0
1.4725,0.14595,0,0,0,0,0
1.475,0.14595,0,0,0,0,0
1.4775,0.14598,0,0,0,0,0
1.48,0.14605,0,0,0,0,0
1.4825,0.14614,0,0,0,0,0
1.485,0.14625,0,0,0,0,0
1.4875,0.1464,0,0,0,0,0
1.49,0.14658,0,0,0,0,0
1.4925,0.14679,0,0,0,0,0
1.495,0.14701,0,0,0,0,0
1.4975,0.14726,0,0,0,0,0
1.5,0.14752,0,0,0,0,0
1.5025,0.1478,0,0,0,0,0
1.505,0.14808,0,0,0,0,0
1.5075,0.14837,0,0,0,0,0
1.51,0.14867,0,0,0,0,0
1.5125,0.14897,0,0,0,0,0
1.515,0.14927,0,0,0,0,0
1.5175,0.14957,0,0,0,0,0
1.52,0.14987,0,0,0,0,0
1.5225,0.15017,0,0,0,0,0
1.525,0.15046,0,0,0,0,0
1.5275,0.15075,0,0,0,0,0
1.53,0.15103,0,0,0,0,0
1.5325,0.15131,0,0,0,0,0
1.535,0.15159,0,0,0,0,0
1.5375,0.15185,0,0,0,0,0
1.54,0.15212,0,0,0,0,0
1.5425,0.15238,0,0,0,0,0
1.545,0.15263,0,0,0,0,0
1.5475,0.15289,0,0,0,0,0
1.55,0.15314,0,0,0,0,0
1.5525,0.15339,0,0,0,0,0
1.555,0.15365,0,0,0,0,0
1.5575,0.15391,0,0,0,0,0
1.56,0.15416,0,0,0,0,0
1.5625,0.15442,0,0,0,0,0
1.565,0.15468,0,0,0,0,0
1.5675,0.15493,0,0,0,0,0
1.57,0.15518,0,0,0,0,0
1.5725,0.15543,0,0,0,0,0
1.575,0.15568,0,0,0,0,0
1.5775,0.15593,0,0,0,0,0
1.58,0.15617,0,0,0,0,0
1.5825,0.15642,0,0,0,0,0
1.585,0.15666,0,0,0,0,0
1.5875,0.1569,0,0,0,0,0
1.59,0.15713,0,0,0,0,0
1.5925,0.15737,0,0,0,0,0
1.595,0.1576,0,0,0,0,0
1.5975,0.15783,0,0,0,0,0
1.6,0.15806,0,0,0,0,0
1.6025,0.15828,0,0,0,0,0
1.605,0.15851,0,0,0,0,0
1.6075,0.15873,0,0,0,0,0
1.61,0.15896,0,0,0,0,0
1.6125,0.15918,0,0,0,0,0
1.615,0.1594,0,0,0,0,0
1.6175,0.15963,0,0,0,0,0
1.62,0.15985,0,0,0,0,0
1.6225,0.16008,0,0,0,0,0
1.625,0.1603,0,0,0,0,0
1.6275,0.16053,0,0,0,0,0
1.63,0.16076,0,0,0,0,0
1.6325,0.161,0,0,0,0,0
1.635,0.16123,0,0,0,0,0
1.6375,0.16148,0,0,0,0,0
1.64,0.16172,0,0,0,0,0
1.6425,0.16198,0,0,0,0,0
1.645,0.16224,0,0,0,0,0
1.6475,0.16252,0,0,0,0,0
1.65,0.16281,0,0,0,0,0
1.6525,0.16312,0,0,0,0,0
1.655,0.16345,0,0,0,0,0
1.6575,0.16381,0,0,0,0,0
1.66,0.1642,0,0,0,0,0
1.6625,0.16464,0,0,0,0,0
1.665,0.16512,0,0,0,0,0
1.6675,0.16566,0,0,0,0,0
1.67,0.16627,0,0,0,0,0
1.6725,0.16696,0,0,0,0,0
1.675,0.16774,0,0,0,0,0
1.6775,0.16862,0,0,0,0,0
1.68,0.16962,0,0,0,0,0
1.6825,0.17076,0,0,0,0,0
1.685,0.17206,0,0,0,0,0
1.6875,0.17354,0,0,0,0,0
1.69,0.17521,0,0,0,0,0
1.6925,0.1771,0,0,0,0,0
1.695,0.17924,0,0,0,0,0
1.6975,0.18163,0,0,0,0,0
1.7,0.18432,0,0,0,0,0
1.7025,0.18731,0,0,0,0,0
1.705,0.19065,0,0,0,0,0
1.7075,0.19433,0,0,0,0,0
1.71,0.19839,0,0,0,0,0
1.7125,0.20285,0,0,0,0,0
1.715,0.20772,0,0,0,0,0
1.7175,0.21303,0,0,0,0,0
1.72,0.21878,0,0,0,0,0
1.7225,0.22498,0,0,0,0,0
1.725,0.23161,0,0,0,0,0
1.7275,0.23867,0,0,0,0,0
1.73,0.24614,0,0,0,0,0
1.7325,0.25399,0,0,0,0,0
1.735,0.26219,0,0,0,0,0
1.7375,0.27072,0,0,0,0,0
1.74,0.27951,0,0,0,0,0
1.7425,0.28852,0,0,0,0,0
1.745,0.2977,0,0,0,0,0
1.7475,0.30705,0,0,0,0,0
1.75,0.31646,0,0,0,0,0
1.7525,0.32583,0,0,0,0,0
1.755,0.33504,0,0,0,0,0
1.7575,0.34398,0,0,0,0,0
1.76,0.35255,0,0,0,0,0
1.7625,0.36066,0,0,0,0,0
1.765,0.36822,0,0,0,0,0
1.7675,0.37517,0,0,0,0,0
1.77,0.38141,0,0,0,0,0
1.7725,0.38691,0,0,0,0,0
1.775,0.39159,0,0,0,0,0
1.7775,0.39541,0,0,0,0,0
1.78,0.39833,0,0,0,0,0
1.7825,0.40032,0,0,0,0,0
1.785,0.40134,0,0,0,0,0
1.7875,0.40139,1,0,0,0,0
1.79,0.40045,0,0,0,0,0
1.7925,0.39852,0,0,0,0,0
1.795,0.39559,0,0,0,0,0
1.7975,0.39169,0,0,0,0,0
1.8,0.38676,0,0,0,0,0
1.8025,0.38085,0,0,0,0,0
1.805,0.3741,0,0,0,0,0
1.8075,0.36663,0,0,0,0,0
1.81,0.35854,0,0,0,0,0
1.8125,0.34996,0,0,0,0,0
1.815,0.34098,0,0,0,0,0
1.8175,0.3317,0,0,0,0,0
1.82,0.32221,0,0,0,0,0
1.8225,0.3126,0,0,0,0,0
1.825,0.30295,0,0,0,0,0
1.8275,0.29334,0,0,0,0,0
1.83,0.28382,0,0,0,0,0
1.8325,0.27447,0,0,0,0,0
1.835,0.26534,0,0,0,0,0
1.8375,0.25648,0,0,0,0,0
1.84,0.24793,0,0,0,0,0
1.8425,0.23974,0,0,0,0,0
1.845,0.23193,0,0,0,0,0
1.8475,0.22453,0,0,0,0,0
1.85,0.21757,0,0,0,0,0
1.8525,0.21105,0,0,0,0,0
1.855,0.20499,0,0,0,0,0
1.8575,0.19938,0,0,0,0,0
1.86,0.19424,0,0,0,0,0
1.8625,0.18954,0,0,0,0,0
1.865,0.18527,0,0,0,0,0
1.8675,0.18141,0,0,0,0,0
1.87,0.17794,0,0,0,0,0
1.8725,0.17482,0,0,0,0,0
1.875,0.172,0,0,0,0,0
1.8775,0.16946,0,0,0,0,0
1.88,0.16719,0,0,0,0,0
1.8825,0.16514,0,0,0,0,0
1.885,0.16322,0,0,0,0,0
1.8875,0.16134,0,0,0,0,0
1.89,0.15937,0,0,0,0,0
1.8925,0.15714,0,0,0,0,0
1.895,0.15446,0,0,0,0,0
1.8975,0.15112,0,0,0,0,0
1.9,0.14687,0,0,0,0,0
1.9025,0.14146,0,0,0,0,0
1.905,0.13474,0,0,0,0,0
1.9075,0.12637,0,0,0,0,0
1.91,0.11619,0,0,0,0,0
1.9125,0.10423,0,0,0,0,0
1.915,0.090751,0,0,0,0,0
1.9175,0.076226,0,0,0,0,0
1.92,0.061335,0,0,0,0,0
1.9225,0.046978,0,0,0,0,0
1.925,0.034264,0,0,0,0,0
1.9275,0.024518,0,0,0,0,0
1.93,0.019278,0,1,0,0,0
1.9325,0.019784,0,0,0,0,0
1.935,0.027497,0,0,0,0,0
1.9375,0.044351,0,0,0,0,0
1.94,0.071807,0,0,0,0,0
1.9425,0.11084,0,0,0,0,0
1.945,0.16197,0,0,0,0,0
1.9475,0.2252,0,0,0,0,0
1.95,0.3001,0,0,0,0,0
1.9525,0.38573,0,0,0,0,0
1.955,0.48068,0,0,0,0,0
1.9575,0.58299,0,0,0,0,0
1.96,0.68862,0,0,0,0,0
1.9625,0.79203,0,0,0,0,0
1.965,0.8879,0,0,0,0,0
1.9675,0.97114,0,0,0,0,0
1.97,1.0369,0,0,0,0,0
1.9725,1.0806,0,0,0,0,0
1.975,1.0991,0,0,1,0,0
1.9775,1.0933,0,0,0,0,0
1.98,1.0619,0,0,0,0,0
1.9825,1.0054,0,0,0,0,0
1.985,0.92676,0,0,0,0,0
1.9875,0.83071,0,0,0,0,0
1.99,0.72436,0,0,0,0,0
1.9925,0.61473,0,0,0,0,0
1.995,0.50175,0,0,0,0,0
1.9975,0.38884,0,0,0,0,0
2,0.27939,0,0,0,0,0
2.0025,0.17619,0,0,0,0,0
2.005,0.081467,0,0,0,0,0
2.0075,-0.0030432,0,0,0,0,0
2.01,-0.076057,0,0,0,0,0
2.0125,-0.13733,0,0,0,0,0
2.015,-0.1869,0,0,0,0,0
2.0175,-0.22499,0,0,0,0,0
2.02,-0.25201,0,0,0,0,0
2.0225,-0.26857,0,0,0,0,0
2.025,-0.2755,0,0,0,1,0
2.0275,-0.27377,0,0,0,0,0
2.03,-0.26461,0,0,0,0,0
2.0325,-0.24938,0,0,0,0,0
2.035,-0.22968,0,0,0,0,0
2.0375,-0.20729,0,0,0,0,0
2.04,-0.18374,0,0,0,0,0
2.0425,-0.15991,0,0,0,0,0
2.045,-0.13668,0,0,0,0,0
2.0475,-0.11475,0,0,0,0,0
2.05,-0.094654,0,0,0,0,0
2.0525,-0.076781,0,0,0,0,0
2.055,-0.061353,0,0,0,0,0
2.0575,-0.048432,0,0,0,0,0
2.06,-0.037922,0,0,0,0,0
2.0625,-0.029567,0,0,0,0,0
2.065,-0.02295,0,0,0,0,0
2.0675,-0.01758,0,0,0,0,0
2.07,-0.0133,0,0,0,0,0
2.0725,-0.009905,0,0,0,0,0
2.075,-0.0071951,0,0,0,0,0
2.0775,-0.0049937,0,0,0,0,0
2.08,-0.0031476,0,0,0,0,0
2.0825,-0.0015272,0,0,0,0,0
2.085,-2.6334e-05,0,0,0,0,0
2.0875,0.0014376,0,0,0,0,0
2.09,0.0029236,0,0,0,0,0
2.0925,0.0044672,0,0,0,0,0
2.095,0.0060806,0,0,0,0,0
2.0975,0.0077522,0,0,0,0,0
2.1,0.0094776,0,0,0,0,0
2.1025,0.011297,0,0,0,0,0
2.105,0.013218,0,0,0,0,0
2.1075,0.01525,0,0,0,0,0
2.11,0.0174,0,0,0,0,0
2.1125,0.019676,0,0,0,0,0
2.115,0.022084,0,0,0,0,0
2.1175,0.024631,0,0,0,0,0
2.12,0.027326,0,0,0,0,0
2.1225,0.030175,0,0,0,0,0
2.125,0.033185,0,0,0,0,0
2.1275,0.036362,0,0,0,0,0
2.13,0.039713,0,0,0,0,0
2.1325,0.043245,0,0,0,0,0
2.135,0.046964,0,0,0,0,0
2.1375,0.050875,0,0,0,0,0
2.14,0.054986,0,0,0,0,0
2.1425,0.059302,0,0,0,0,0
2.145,0.063826,0,0,0,0,0
2.1475,0.068558,0,0,0,0,0
2.15,0.073506,0,0,0,0,0
2.1525,0.078675,0,0,0,0,0
2.155,0.084071,0,0,0,0,0
2.1575,0.089696,0,0,0,0,0
2.16,0.095552,0,0,0,0,0
2.1625,0.10164,0,0,0,0,0
2.165,0.10796,0,0,0,0,0
2.1675,0.11452,0,0,0,0,0
2.17,0.1213,0,0,0,0,0
2.1725,0.12831,0,0,0,0,0
2.175,0.13554,0,0,0,0,0
2.1775,0.14298,0,0,0,0,0
2.18,0.15064,0,0,0,0,0
2.1825,0.15849,0,0,0,0,0
2.185,0.16654,0,0,0,0,0
2.1875,0.17476,0,0,0,0,0
2.19,0.18316,0,0,0,0,0
2.1925,0.19171,0,0,0,0,0
2.195,0.20041,0,0,0,0,0
2.1975,0.20924,0,0,0,0,0
2.2,0.21817,0,0,0,0,0
2.2025,0.22721,0,0,0,0,0
2.205,0.23632,0,0,0,0,0
2.2075,0.24549,0,0,0,0,0
2.21,0.2547,0,0,0,0,0
2.2125,0.26394,0,0,0,0,0
2.215,0.27318,0,0,0,0,0
2.2175,0.2824,0,0,0,0,0
2.22,0.29156,0,0,0,0,0
2.2225,0.30064,0,0,0,0,0
2.225,0.3096,0,0,0,0,0
2.2275,0.31843,0,0,0,0,0
2.23,0.3271,0,0,0,0,0
2.2325,0.33557,0,0,0,0,0
2.235,0.34383,0,0,0,0,0
2.2375,0.35185,0,0,0,0,0
2.24,0.3596,0,0,0,0,0
2.2425,0.36706,0,0,0,0,0
2.245,0.37421,0,0,0,0,0
2.2475,0.38103,0,0,0,0,0
2.25,0.3875,0,0,0,0,0
2.2525,0.39358,0,0,0,0,0
2.255,0.39927,0,0,0,0,0
2.2575,0.40454,0,0,0,0,0
2.26,0.40938,0,0,0,0,0
2.2625,0.41375,0,0,0,0,0
2.265,0.41765,0,0,0,0,0
2.2675,0.42106,0,0,0,0,0
2.27,0.42397,0,0,0,0,0
2.2725,0.42634,0,0,0,0,0
2.275,0.42817,0,0,0,0,0
2.2775,0.42945,0,0,0,0,0
2.28,0.43016,0,0,0,0,0
2.2825,0.43033,0,0,0,0,1
2.285,0.42994,0,0,0,0,0
2.2875,0.429,0,0,0,0,0
2.29,0.42752,0,0,0,0,0
2.2925,0.42551,0,0,0,0,0
2.295,0.42296,0,0,0,0,0
2.2975,0.4199,0,0,0,0,0
2.3,0.41632,0,0,0,0,0
2.3025,0.41225,0,0,0,0,0
2.305,0.40769,0,0,0,0,0
2.3075,0.40267,0,0,0,0,0
2.31,0.39718,0,0,0,0,0
2.3125,0.39126,0,0,0,0,0
2.315,0.38491,0,0,0,0,0
2.3175,0.37816,0,0,0,0,0
2.32,0.37102,0,0,0,0,0
2.3225,0.36352,0,0,0,0,0
2.325,0.35568,0,0,0,0,0
2.3275,0.34752,0,0,0,0,0
2.33,0.33907,0,0,0,0,0
2.3325,0.33035,0,0,0,0,0
2.335,0.3214,0,0,0,0,0
2.3375,0.31223,0,0,0,0,0
2.34,0.30288,0,0,0,0,0
2.3425,0.29338,0,0,0,0,0
2.345,0.28376,0,0,0,0,0
2.3475,0.27405,0,0,0,0,0
2.35,0.2643,0,0,0,0,0
2.3525,0.25452,0,0,0,0,0
2.355,0.24475,0,0,0,0,0
2.3575,0.23498,0,0,0,0,0
2.36,0.22524,0,0,0,0,0
2.3625,0.21557,0,0,0,0,0
2.365,0.20597,0,0,0,0,0
2.3675,0.19647,0,0,0,0,0
2.37,0.18708,0,0,0,0,0
2.3725,0.17784,0,0,0,0,0
2.375,0.16875,0,0,0,0,0
2.3775,0.15982,0,0,0,0,0
2.38,0.15109,0,0,0,0,0
2.3825,0.14255,0,0,0,0,0
2.385,0.13421,0,0,0,0,0
2.3875,0.1261,0,0,0,0,0
2.39,0.11822,0,0,0,0,0
2.3925,0.11058,0,0,0,0,0
2.395,0.10318,0,0,0,0,0
2.3975,0.096028,0,0,0,0,0
2.4,0.089135,0,0,0,0,0
2.4025,0.082501,0,0,0,0,0
2.405,0.076128,0,0,0,0,0
2.4075,0.070017,0,0,0,0,0
2.41,0.064168,0,0,0,0,0
2.4125,0.058579,0,0,0,0,0
2.415,0.053248,0,0,0,0,0
2.4175,0.048171,0,0,0,0,0
2.42,0.043342,0,0,0,0,0
2.4225,0.03876,0,0,0,0,0
2.425,0.034431,0,0,0,0,0
2.4275,0.030346,0,0,0,0,0
2.43,0.026497,0,0,0,0,0
2.4325,0.022876,0,0,0,0,0
2.435,0.019474,0,0,0,0,0
2.4375,0.016283,0,0,0,0,0
2.44,0.013295,0,0,0,0,0
2.4425,0.010502,0,0,0,0,0
2.445,0.0078957,0,0,0,0,0
2.4475,0.0054695,0,0,0,0,0
2.45,0.0032154,0,0,0,0,0
2.4525,0.0011261,0,0,0,0,0
2.455,-0.00080556,0,0,0,0,0
2.4575,-0.0025868,0,0,0,0,0
2.46,-0.0042245,0,0,0,0,0
2.4625,-0.0057255,0,0,0,0,0
2.465,-0.0070965,0,0,0,0,0
2.4675,-0.0083439,0,0,0,0,0
2.47,-0.0094743,0,0,0,0,0
2.4725,-0.010494,0,0,0,0,0
2.475,-0.011409,0,0,0,0,0
2.4775,-0.012225,0,0,0,0,0
2.48,-0.012948,0,0,0,0,0
2.4825,-0.013584,0,0,0,0,0
2.485,-0.014139,0,0,0,0,0
2.4875,-0.014618,0,0,0,0,0
2.49,-0.015026,0,0,0,0,0
2.4925,-0.015368,0,0,0,0,0
2.495,-0.01565,0,0,0,0,0
2.4975,-0.015876,0,0,0,0,0
2.5,-0.016051,0,0,0,0,0
2.5025,-0.01618,0,0,0,0,0
2.505,-0.016267,0,0,0,0,0
2.5075,-0.016317,0,0,0,0,0
2.51,-0.016334,0,0,0,0,0
2.5125,-0.01632,0,0,0,0,0
2.515,-0.016268,0,0,0,0,0
2.5175,-0.016176,0,0,0,0,0
2.52,-0.016048,0,0,0,0,0
2.5225,-0.015888,0,0,0,0,0
2.525,-0.015699,0,0,0,0,0
2.5275,-0.015484,0,0,0,0,0
2.53,-0.015246,0,0,0,0,0
2.5325,-0.014988,0,0,0,0,0
2.535,-0.014712,0,0,0,0,0
2.5375,-0.014421,0,0,0,0,0
2.54,-0.014117,0,0,0,0,0
2.5425,-0.013802,0,0,0,0,0
2.545,-0.013479,0,0,0,0,0
2.5475,-0.01315,0,0,0,0,0
2.55,-0.012816,0,0,0,0,0
2.5525,-0.012479,0,0,0,0,0
2.555,-0.012141,0,0,0,0,0
2.5575,-0.011802,0,0,0,0,0
2.56,-0.011465,0,0,0,0,0
2.5625,-0.011129,0,0,0,0,0
2.565,-0.010797,0,0,0,0,0
2.5675,-0.010469,0,0,0,0,0
2.57,-0.010146,0,0,0,0,0
2.5725,-0.009828,0,0,0,0,0
2.575,-0.0095156,0,0,0,0,0
2.5775,-0.009209,0,0,0,0,0
2.58,-0.0089084,0,0,0,0,0
2.5825,-0.0086138,0,0,0,0,0
2.585,-0.008325,0,0,0,0,0
2.5875,-0.0080417,0,0,0,0,0
2.59,-0.0077633,0,0,0,0,0
2.5925,-0.0074894,0,0,0,0,0
2.595,-0.0072191,0,0,0,0,0
2.5975,-0.0069517,0,0,0,0,0
2.6,-0.006686,0,0,0,0,0
2.6025,-0.006421,0,0,0,0,0
2.605,-0.0061553,0,0,0,0,0
2.6075,-0.0058874,0,0,0,0,0
2.61,-0.0056158,0,0,0,0,0
2.6125,-0.0053371,0,0,0,0,0
2.615,-0.0050507,0,0,0,0,0
2.6175,-0.0047582,0,0,0,0,0
2.62,-0.0044613,0,0,0,0,0
2.6225,-0.0041615,0,0,0,0,0
2.625,-0.0038602,0,0,0,0,0
2.6275,-0.0035588,0,0,0,0,0
2.63,-0.0032583,0,0,0,0,0
2.6325,-0.0029599,0,0,0,0,0
2.635,-0.0026646,0,0,0,0,0
2.6375,-0.0023733,0,0,0,0,0
2.64,-0.0020867,0,0,0,0,0
2.6425,-0.0018054,0,0,0,0,0
2.645,-0.0015302,0,0,0,0,0
2.6475,-0.0012613,0,0,0,0,0
2.65,-0.00099921,0,0,0,0,0
2.6525,-0.00074412,0,0,0,0,0
2.655,-0.00049618,0,0,0,0,0
2.6575,-0.00025542,0,0,0,0,0
2.66,-2.1779e-05,0,0,0,0,0
2.6625,0.00020492,0,0,0,0,0
2.665,0.00042496,0,0,0,0,0
2.6675,0.00063873,0,0,0,0,0
2.67,0.00084672,0,0,0,0,0
2.6725,0.0010495,0,0,0,0,0
2.675,0.0012478,0,0,0,0,0
2.6775,0.0014425,0,0,0,0,0
2.68,0.0016343,0,0,0,0,0
2.6825,0.0018245,0,0,0,0,0
2.685,0.002014,0,0,0,0,0
2.6875,0.0022041,0,0,0,0,0
2.69,0.0023961,0,0,0,0,0
2.6925,0.0025915,0,0,0,0,0
2.695,0.0027918,0,0,0,0,0
2.6975,0.0029987,0,0,0,0,0
2.7,0.003214,0,0,0,0,0
2.7025,0.0034394,0,0,0,0,0
2.705,0.0036769,0,0,0,0,0
2.7075,0.0039287,0,0,0,0,0
2.71,0.0041969,0,0,0,0,0
2.7125,0.0044838,0,0,0,0,0
2.715,0.0047917,0,0,0,0,0
2.7175,0.0051232,0,0,0,0,0
2.72,0.0054808,0,0,0,0,0
2.7225,0.0058673,0,0,0,0,0
2.725,0.0062854,0,0,0,0,0
2.7275,0.0067382,0,0,0,0,0
2.73,0.0072285,0,0,0,0,0
2.7325,0.0077595,0,0,0,0,0
2.735,0.0083345,0,0,0,0,0
2.7375,0.0089568,0,0,0,0,0
2.74,0.0096298,0,0,0,0,0
2.7425,0.010364,0,0,0,0,0
2.745,0.011177,0,0,0,0,0
2.7475,0.012084,0,0,0,0,0
2.75,0.013102,0,0,0,0,0
2.7525,0.014246,0,0,0,0,0
2.755,0.015533,0,0,0,0,0
2.7575,0.016978,0,0,0,0,0
2.76,0.018596,0,0,0,0,0
2.7625,0.020404,0,0,0,0,0
2.765,0.022417,0,0,0,0,0
2.7675,0.024649,0,0,0,0,0
2.77,0.027116,0,0,0,0,0
2.7725,0.029833,0,0,0,0,0
2.775,0.032815,0,0,0,0,0
2.7775,0.036075,0,0,0,0,0
2.78,0.03963,0,0,0,0,0
2.7825,0.043492,0,0,0,0,0
2.785,0.047677,0,0,0,0,0
2.7875,0.052198,0,0,0,0,0
2.79,0.05707,0,0,0,0,0
2.7925,0.062306,0,0,0,0,0
2.795,0.067919,0,0,0,0,0
2.7975,0.073924,0,0,0,0,0
2.8,0.080333,0,0,0,0,0
2.8025,0.08714,0,0,0,0,0
2.805,0.094323,0,0,0,0,0
2.8075,0.10186,0,0,0,0,0
2.81,0.10972,0,0,0,0,0
2.8125,0.11789,0,0,0,0,0
2.815,0.12631,0,0,0,0,0
2.8175,0.13497,0,0,0,0,0
2.82,0.14382,0,0,0,0,0
2.8225,0.15283,0,0,0,0,0
2.825,0.16194,0,0,0,0,0
2.8275,0.17112,0,0,0,0,0
2.83,0.18031,0,0,0,0,0
2.8325,0.18946,0,0,0,0,0
2.835,0.19852,0,0,0,0,0
2.8375,0.20742,0,0,0,0,0
2.84,0.21612,0,0,0,0,0
2.8425,0.22454,0,0,0,0,0
2.845,0.23261,0,0,0,0,0
2.8475,0.24028,0,0,0,0,0
2.85,0.24746,0,0,0,0,0
2.8525,0.25408,0,0,0,0,0
2.855,0.26006,0,0,0,0,0
2.8575,0.26532,0,0,0,0,0
2.86,0.26982,0,0,0,0,0
2.8625,0.27355,0,0,0,0,0
2.865,0.27646,0,0,0,0,0
2.8675,0.27853,0,0,0,0,0
2.87,0.27974,0,0,0,0,0
2.8725,0.28009,1,0,0,0,0
2.875,0.27957,0,0,0,0,0
2.8775,0.27817,0,0,0,0,0
2.88,0.27591,0,0,0,0,0
2.8825,0.27281,0,0,0,0,0
2.885,0.26888,0,0,0,0,0
2.8875,0.26416,0,0,0,0,0
2.89,0.25869,0,0,0,0,0
2.8925,0.25251,0,0,0,0,0
2.895,0.24568,0,0,0,0,0
2.8975,0.23824,0,0,0,0,0
2.9,0.23028,0,0,0,0,0
2.9025,0.22185,0,0,0,0,0
2.905,0.21305,0,0,0,0,0
2.9075,0.20395,0,0,0,0,0
2.91,0.19458,0,0,0,0,0
2.9125,0.18503,0,0,0,0,0
2.915,0.17537,0,0,0,0,0
2.9175,0.16567,0,0,0,0,0
2.92,0.15598,0,0,0,0,0
2.9225,0.14637,0,0,0,0,0
2.925,0.1369,0,0,0,0,0
2.9275,0.1276,0,0,0,0,0
2.93,0.11853,0,0,0,0,0
2.9325,0.10972,0,0,0,0,0
2.935,0.10121,0,0,0,0,0
2.9375,0.093027,0,0,0,0,0
2.94,0.085199,0,0,0,0,0
2.9425,0.077746,0,0,0,0,0
2.945,0.070683,0,0,0,0,0
2.9475,0.064021,0,0,0,0,0
2.95,0.057766,0,0,0,0,0
2.9525,0.051877,0,0,0,0,0
2.955,0.046351,0,0,0,0,0
2.9575,0.041211,0,0,0,0,0
2.96,0.036473,0,0,0,0,0
2.9625,0.032144,0,0,0,0,0
2.965,0.028223,0,0,0,0,0
2.9675,0.024699,0,0,0,0,0
2.97,0.021553,0,0,0,0,0
2.9725,0.018756,0,0,0,0,0
2.975,0.016272,0,0,0,0,0
2.9775,0.014055,0,0,0,0,0
2.98,0.012051,0,0,0,0,0
2.9825,0.010198,0,0,0,0,0
2.985,0.0084236,0,0,0,0,0
2.9875,0.0066473,0,0,0,0,0
2.99,0.0047801,0,0,0,0,0
2.9925,0.0027242,0,0,0,0,0
2.995,0.00037298,0,0,0,0,0
2.9975,-0.0023888,0,0,0,0,0
3,-0.0056852,0,0,0,0,0
3.0025,-0.0096164,0,0,0,0,0
3.005,-0.014374,0,0,0,0,0
3.0075,-0.020329,0,0,0,0,0
3.01,-0.027741,0,0,0,0,0
3.0125,-0.036747,0,0,0,0,0
3.015,-0.04736,0,0,0,0,0
3.0175,-0.059473,0,0,0,0,0
3.02,-0.072853,0,0,0,0,0
3.0225,-0.087145,0,0,0,0,0
3.025,-0.10187,0,0,0,0,0
3.0275,-0.11643,0,0,0,0,0
3.03,-0.1301,0,0,0,0,0
3.0325,-0.14216,0,0,0,0,0
3.035,-0.15151,0,0,0,0,0
3.0375,-0.1568,0,1,0,0,0
3.04,-0.15676,0,0,0,0,0
3.0425,-0.15028,0,0,0,0,0
3.045,-0.13636,0,0,0,0,0
3.0475,-0.11413,0,0,0,0,0
3.05,-0.082848,0,0,0,0,0
3.0525,-0.041901,0,0,0,0,0
3.055,0.0092026,0,0,0,0,0
3.0575,0.070827,0,0,0,0,0
3.06,0.14322,0,0,0,0,0
3.0625,0.22662,0,0,0,0,0
3.065,0.31929,0,0,0,0,0
3.0675,0.41856,0,0,0,0,0
3.07,0.5216,0,0,0,0,0
3.0725,0.62541,0,0,0,0,0
3.075,0.72681,0,0,0,0,0
3.0775,0.82244,0,0,0,0,0
3.08,0.90876,0,0,0,0,0
3.0825,0.98205,0,0,0,0,0
3.085,1.0384,0,0,0,0,0
3.0875,1.0738,0,0,0,0,0
3.09,1.085,0,0,1,0,0
3.0925,1.0721,0,0,0,0,0
3.095,1.0352,0,0,0,0,0
3.0975,0.97591,0,0,0,0,0
3.1,0.89679,0,0,0,0,0
3.1025,0.80174,0,0,0,0,0
3.105,0.69584,0,0,0,0,0
3.1075,0.58413,0,0,0,0,0
3.11,0.47039,0,0,0,0,0
3.1125,0.35863,0,0,0,0,0
3.115,0.25218,0,0,0,0,0
3.1175,0.15371,0,0,0,0,0
3.12,0.065227,0,0,0,0,0
3.1225,-0.011914,0,0,0,0,0
3.125,-0.076742,0,0,0,0,0
3.1275,-0.12911,0,0,0,0,0
3.13,-0.16932,0,0,0,0,0
3.1325,-0.19789,0,0,0,0,0
3.135,-0.21552,0,0,0,0,0
3.1375,-0.22312,0,0,0,1,0
3.14,-0.22178,0,0,0,0,0
3.1425,-0.2128,0,0,0,0,0
3.145,-0.19768,0,0,0,0,0
3.1475,-0.1781,0,0,0,0,0
3.15,-0.15593,0,0,0,0,0
3.1525,-0.1326,0,0,0,0,0
3.155,-0.10917,0,0,0,0,0
3.1575,-0.086557,0,0,0,0,0
3.16,-0.065484,0,0,0,0,0
3.1625,-0.046496,0,0,0,0,0
3.165,-0.029946,0,0,0,0,0
3.1675,-0.016,0,0,0,0,0
3.17,-0.0046377,0,0,0,0,0
3.1725,0.0043501,0,0,0,0,0
3.175,0.01136,0,0,0,0,0
3.1775,0.016921,0,0,0,0,0
3.18,0.021253,0,0,0,0,0
3.1825,0.024581,0,0,0,0,0
3.185,0.027138,0,0,0,0,0
3.1875,0.029126,0,0,0,0,0
3.19,0.03072,0,0,0,0,0
3.1925,0.032066,0,0,0,0,0
3.195,0.033284,0,0,0,0,0
3.1975,0.034463,0,0,0,0,0
3.2,0.035665,0,0,0,0,0
3.2025,0.036926,0,0,0,0,0
3.205,0.038249,0,0,0,0,0
3.2075,0.03962,0,0,0,0,0
3.21,0.041072,0,0,0,0,0
3.2125,0.042625,0,0,0,0,0
3.215,0.044289,0,0,0,0,0
3.2175,0.046071,0,0,0,0,0
3.22,0.04798,0,0,0,0,0
3.2225,0.050024,0,0,0,0,0
3.225,0.052211,0,0,0,0,0
3.2275,0.05455,0,0,0,0,0
3.23,0.057046,0,0,0,0,0
3.2325,0.059709,0,0,0,0,0
3.235,0.062546,0,0,0,0,0
3.2375,0.065563,0,0,0,0,0
3.24,0.068768,0,0,0,0,0
3.2425,0.072168,0,0,0,0,0
3.245,0.075769,0,0,0,0,0
3.2475,0.079579,0,0,0,0,0
3.25,0.083602,0,0,0,0,0
3.2525,0.087838,0,0,0,0,0
3.255,0.092295,0,0,0,0,0
3.2575,0.096981,0,0,0,0,0
3.26,0.1019,0,0,0,0,0
3.2625,0.10706,0,0,0,0,0
3.265,0.11246,0,0,0,0,0
3.2675,0.11811,0,0,0,0,0
3.27,0.124,0,0,0,0,0
3.2725,0.13014,0,0,0,0,0
3.275,0.13652,0,0,0,0,0
3.2775,0.14314,0,0,0,0,0
3.28,0.15,0,0,0,0,0
3.2825,0.15708,0,0,0,0,0
3.285,0.1644,0,0,0,0,0
3.2875,0.17192,0,0,0,0,0
3.29,0.17966,0,0,0,0,0
3.2925,0.18759,0,0,0,0,0
3.295,0.19571,0,0,0,0,0
3.2975,0.20399,0,0,0,0,0
3.3,0.21244,0,0,0,0,0
3.3025,0.22103,0,0,0,0,0
3.305,0.22974,0,0,0,0,0
3.3075,0.23856,0,0,0,0,0
3.31,0.24747,0,0,0,0,0
3.3125,0.25645,0,0,0,0,0
3.315,0.26549,0,0,0,0,0
3.3175,0.27456,0,0,0,0,0
3.32,0.28364,0,0,0,0,0
3.3225,0.29268,0,0,0,0,0
3.325,0.30167,0,0,0,0,0
3.3275,0.31058,0,0,0,0,0
3.33,0.31936,0,0,0,0,0
3.3325,0.328,0,0,0,0,0
3.335,0.33647,0,0,0,0,0
3.3375,0.34474,0,0,0,0,0
3.34,0.35278,0,0,0,0,0
3.3425,0.36057,0,0,0,0,0
3.345,0.36808,0,0,0,0,0
3.3475,0.37528,0,0,0,0,0
3.35,0.38216,0,0,0,0,0
3.3525,0.38868,0,0,0,0,0
3.355,0.39482,0,0,0,0,0
3.3575,0.40056,0,0,0,0,0
3.36,0.40588,0,0,0,0,0
3.3625,0.41076,0,0,0,0,0
3.365,0.41517,0,0,0,0,0
3.3675,0.41909,0,0,0,0,0
3.37,0.4225,0,0,0,0,0
3.3725,0.42539,0,0,0,0,0
3.375,0.42773,0,0,0,0,0
3.3775,0.4295,0,0,0,0,0
3.38,0.43071,0,0,0,0,0
3.3825,0.43134,0,0,0,0,0
3.385,0.43139,0,0,0,0,1
3.3875,0.43088,0,0,0,0,0
3.39,0.4298,0,0,0,0,0
3.3925,0.42816,0,0,0,0,0
3.395,0.42596,0,0,0,0,0
3.3975,0.42322,0,0,0,0,0
3.4,0.41994,0,0,0,0,0
3.4025,0.41613,0,0,0,0,0
3.405,0.41181,0,0,0,0,0
3.4075,0.40699,0,0,0,0,0
3.41,0.40168,0,0,0,0,0
3.4125,0.3959,0,0,0,0,0
3.415,0.38967,0,0,0,0,0
3.4175,0.38301,0,0,0,0,0
3.42,0.37594,0,0,0,0,0
3.4225,0.36849,0,0,0,0,0
3.425,0.36066,0,0,0,0,0
3.4275,0.35251,0,0,0,0,0
3.43,0.34404,0,0,0,0,0
3.4325,0.33528,0,0,0,0,0
3.435,0.32628,0,0,0,0,0
3.4375,0.31705,0,0,0,0,0
3.44,0.30763,0,0,0,0,0
3.4425,0.29806,0,0,0,0,0
3.445,0.28836,0,0,0,0,0
3.4475,0.27859,0,0,0,0,0
3.45,0.26877,0,0,0,0,0
3.4525,0.25892,0,0,0,0,0
3.455,0.24907,0,0,0,0,0
3.4575,0.23923,0,0,0,0,0
3.46,0.22943,0,0,0,0,0
3.4625,0.2197,0,0,0,0,0
3.465,0.21005,0,0,0,0,0
3.4675,0.20052,0,0,0,0,0
3.47,0.19112,0,0,0,0,0
3.4725,0.18186,0,0,0,0,0
3.475,0.17278,0,0,0,0,0
3.4775,0.16389,0,0,0,0,0
3.48,0.15519,0,0,0,0,0
3.4825,0.14671,0,0,0,0,0
3.485,0.13845,0,0,0,0,0
3.4875,0.13043,0,0,0,0,0
3.49,0.12265,0,0,0,0,0
3.4925,0.11513,0,0,0,0,0
3.495,0.10787,0,0,0,0,0
3.4975,0.10088,0,0,0,0,0
3.5,0.094158,0,0,0,0,0
3.5025,0.087708,0,0,0,0,0
3.505,0.08153,0,0,0,0,0
3.5075,0.075626,0,0,0,0,0
3.51,0.069994,0,0,0,0,0
3.5125,0.064629,0,0,0,0,0
3.515,0.059528,0,0,0,0,0
3.5175,0.054687,0,0,0,0,0
3.52,0.050114,0,0,0,0,0
3.5225,0.045802,0,0,0,0,0
3.525,0.041741,0,0,0,0,0
3.5275,0.037924,0,0,0,0,0
3.53,0.034341,0,0,0,0,0
3.5325,0.030983,0,0,0,0,0
3.535,0.027842,0,0,0,0,0
3.5375,0.024908,0,0,0,0,0
3.54,0.022175,0,0,0,0,0
3.5425,0.019633,0,0,0,0,0
3.545,0.017275,0,0,0,0,0
3.5475,0.015092,0,0,0,0,0
3.55,0.013078,0,0,0,0,0
3.5525,0.011223,0,0,0,0,0
3.555,0.0095214,0,0,0,0,0
3.5575,0.007965,0,0,0,0,0
3.56,0.0065468,0,0,0,0,0
3.5625,0.0052597,0,0,0,0,0
3.565,0.0040968,0,0,0,0,0
3.5675,0.0030513,0,0,0,0,0
3.57,0.0021166,0,0,0,0,0
3.5725,0.0012862,0,0,0,0,0
3.575,0.00055374,0,0,0,0,0
3.5775,-8.6931e-05,0,0,0,0,0
3.58,-0.00064191,0,0,0,0,0
3.5825,-0.0011171,0,0,0,0,0
3.585,-0.0015183,0,0,0,0,0
3.5875,-0.0018511,0,0,0,0,0
3.59,-0.0021211,0,0,0,0,0
3.5925,-0.0023335,0,0,0,0,0
3.595,-0.0024936,0,0,0,0,0
3.5975,-0.0026064,0,0,0,0,0
3.6,-0.0026768,0,0,0,0,0
3.6025,-0.0027097,0,0,0,0,0
3.605,-0.002709,0,0,0,0,0
3.6075,-0.0026655,0,0,0,0,0
3.61,-0.0025778,0,0,0,0,0
3.6125,-0.0024499,0,0,0,0,0
3.615,-0.0022855,0,0,0,0,0
3.6175,-0.0020884,0,0,0,0,0
3.62,-0.0018621,0,0,0,0,0
3.6225,-0.0016098,0,0,0,0,0
3.625,-0.0013347,0,0,0,0,0
3.6275,-0.0010398,0,0,0,0,0
3.63,-0.00072785,0,0,0,0,0
3.6325,-0.00040157,0,0,0,0,0
3.635,-6.3398e-05,0,0,0,0,0
3.6375,0.00028437,0,0,0,0,0
3.64,0.00063959,0,0,0,0,0
3.6425,0.0010003,0,0,0,0,0
3.645,0.0013647,0,0,0,0,0
3.6475,0.0017312,0,0,0,0,0
3.65,0.0020983,0,0,0,0,0
3.6525,0.0024647,0,0,0,0,0
3.655,0.0028293,0,0,0,0,0
3.6575,0.0031912,0,0,0,0,0
3.66,0.0035496,0,0,0,0,0
3.6625,0.0039038,0,0,0,0,0
3.665,0.0042535,0,0,0,0,0
3.6675,0.0045983,0,0,0,0,0
3.67,0.0049382,0,0,0,0,0
3.6725,0.0052732,0,0,0,0,0
3.675,0.0056035,0,0,0,0,0
3.6775,0.0059296,0,0,0,0,0
3.68,0.006252,0,0,0,0,0
3.6825,0.0065716,0,0,0,0,0
3.685,0.0068891,0,0,0,0,0
3.6875,0.0072057,0,0,0,0,0
3.69,0.0075226,0,0,0,0,0
3.6925,0.0078412,0,0,0,0,0
3.695,0.0081632,0,0,0,0,0
3.6975,0.0084902,0,0,0,0,0
3.7,0.008825,0,0,0,0,0
3.7025,0.0091682,0,0,0,0,0
3.705,0.0095182,0,0,0,0,0
3.7075,0.0098735,0,0,0,0,0
3.71,0.010233,0,0,0,0,0
3.7125,0.010594,0,0,0,0,0
3.715,0.010957,0,0,0,0,0
3.7175,0.01132,0,0,0,0,0
3.72,0.011682,0,0,0,0,0
3.7225,0.012043,0,0,0,0,0
3.725,0.0124,0,0,0,0,0
3.7275,0.012755,0,0,0,0,0
3.73,0.013105,0,0,0,0,0
3.7325,0.013451,0,0,0,0,0
3.735,0.013793,0,0,0,0,0
3.7375,0.014129,0,0,0,0,0
3.74,0.01446,0,0,0,0,0
3.7425,0.014785,0,0,0,0,0
3.745,0.015105,0,0,0,0,0
3.7475,0.01542,0,0,0,0,0
3.75,0.01573,0,0,0,0,0
3.7525,0.016035,0,0,0,0,0
3.755,0.016336,0,0,0,0,0
3.7575,0.016634,0,0,0,0,0
3.76,0.016928,0,0,0,0,0
3.7625,0.01722,0,0,0,0,0
3.765,0.017511,0,0,0,0,0
3.7675,0.017801,0,0,0,0,0
3.77,0.018092,0,0,0,0,0
3.7725,0.018384,0,0,0,0,0
3.775,0.01868,0,0,0,0,0
3.7775,0.01898,0,0,0,0,0
3.78,0.019286,0,0,0,0,0
3.7825,0.0196,0,0,0,0,0
3.785,0.019923,0,0,0,0,0
3.7875,0.020257,0,0,0,0,0
3.79,0.020603,0,0,0,0,0
3.7925,0.020965,0,0,0,0,0
3.795,0.021344,0,0,0,0,0
3.7975,0.021742,0,0,0,0,0
3.8,0.022162,0,0,0,0,0
3.8025,0.022605,0,0,0,0,0
3.805,0.023076,0,0,0,0,0
3.8075,0.023575,0,0,0,0,0
3.81,0.024106,0,0,0,0,0
3.8125,0.024672,0,0,0,0,0
3.815,0.025276,0,0,0,0,0
3.8175,0.025921,0,0,0,0,0
3.82,0.026609,0,0,0,0,0
3.8225,0.027346,0,0,0,0,0
3.825,0.028144,0,0,0,0,0
3.8275,0.029019,0,0,0,0,0
3.83,0.029985,0,0,0,0,0
3.8325,0.031059,0,0,0,0,0
3.835,0.032257,0,0,0,0,0
3.8375,0.033594,0,0,0,0,0
3.84,0.035087,0,0,0,0,0
3.8425,0.036751,0,0,0,0,0
3.845,0.038602,0,0,0,0,0
3.8475,0.040657,0,0,0,0,0
3.85,0.042933,0,0,0,0,0
3.8525,0.045445,0,0,0,0,0
3.855,0.04821,0,0,0,0,0
3.8575,0.051244,0,0,0,0,0
3.86,0.054565,0,0,0,0,0
3.8625,0.05819,0,0,0,0,0
3.865,0.062135,0,0,0,0,0
3.8675,0.066416,0,0,0,0,0
3.87,0.071052,0,0,0,0,0
3.8725,0.07606,0,0,0,0,0
3.875,0.081456,0,0,0,0,0
3.8775,0.087259,0,0,0,0,0
3.88,0.093478,0,0,0,0,0
3.8825,0.1001,0,0,0,0,0
3.885,0.10713,0,0,0,0,0
3.8875,0.11453,0,0,0,0,0
3.89,0.12228,0,0,0,0,0
3.8925,0.13037,0,0,0,0,0
3.895,0.13876,0,0,0,0,0
3.8975,0.14742,0,0,0,0,0
3.9,0.15632,0,0,0,0,0
3.9025,0.16541,0,0,0,0,0
3.905,0.17464,0,0,0,0,0
3.9075,0.18397,0,0,0,0,0
3.91,0.19336,0,0,0,0,0
3.9125,0.20273,0,0,0,0,0
3.915,0.21203,0,0,0,0,0
3.9175,0.2212,0,0,0,0,0
3.92,0.23017,0,0,0,0,0
3.9225,0.23887,0,0,0,0,0
3.925,0.24721,0,0,0,0,0
3.9275,0.25513,0,0,0,0,0
3.93,0.26253,0,0,0,0,0
3.9325,0.26934,0,0,0,0,0
3.935,0.27546,0,0,0,0,0
3.9375,0.28085,0,0,0,0,0
3.94,0.28549,0,0,0,0,0
3.9425,0.28931,0,0,0,0,0
3.945,0.29229,0,0,0,0,0
3.9475,0.2944,0,0,0,0,0
3.95,0.2956,0,0,0,0,0
3.9525,0.2959,1,0,0,0,0
3.955,0.29528,0,0,0,0,0
3.9575,0.29376,0,0,0,0,0
3.96,0.29134,0,0,0,0,0
3.9625,0.28804,0,0,0,0,0
3.965,0.2839,0,0,0,0,0
3.9675,0.27896,0,0,0,0,0
3.97,0.27326,0,0,0,0,0
3.9725,0.26685,0,0,0,0,0
3.975,0.25981,0,0,0,0,0
3.9775,0.2522,0,0,0,0,0
3.98,0.24411,0,0,0,0,0
3.9825,0.2356,0,0,0,0,0
3.985,0.22673,0,0,0,0,0
3.9875,0.21758,0,0,0,0,0
3.99,0.20824,0,0,0,0,0
3.9925,0.19879,0,0,0,0,0
3.995,0.18929,0,0,0,0,0
3.9975,0.17981,0,0,0,0,0
4,0.17042,0,0,0,0,0
4.0025,0.16116,0,0,0,0,0
4.005,0.1521,0,0,0,0,0
4.0075,0.14327,0,0,0,0,0
4.01,0.13473,0,0,0,0,0
4.0125,0.1265,0,0,0,0,0
4.015,0.11862,0,0,0,0,0
4.0175,0.11111,0,0,0,0,0
4.02,0.104,0,0,0,0,0
4.0225,0.097296,0,0,0,0,0
4.025,0.091018,0,0,0,0,0
4.0275,0.085133,0,0,0,0,0
4.03,0.079642,0,0,0,0,0
4.0325,0.074565,0,0,0,0,0
4.035,0.069911,0,0,0,0,0
4.0375,0.065684,0,0,0,0,0
4.04,0.061878,0,0,0,0,0
4.0425,0.058478,0,0,0,0,0
4.045,0.055463,0,0,0,0,0
4.0475,0.052802,0,0,0,0,0
4.05,0.050455,0,0,0,0,0
4.0525,0.048377,0,0,0,0,0
4.055,0.046511,0,0,0,0,0
4.0575,0.044793,0,0,0,0,0
4.06,0.043154,0,0,0,0,0
4.0625,0.041511,0,0,0,0,0
4.065,0.039777,0,0,0,0,0
4.0675,0.037855,0,0,0,0,0
4.07,0.03564,0,0,0,0,0
4.0725,0.03302,0,0,0,0,0
4.075,0.029945,0,0,0,0,0
4.0775,0.026102,0,0,0,0,0
4.08,0.021091,0,0,0,0,0
4.0825,0.014628,0,0,0,0,0
4.085,0.0065547,0,0,0,0,0
4.0875,-0.0031722,0,0,0,0,0
4.09,-0.014474,0,0,0,0,0
4.0925,-0.027152,0,0,0,0,0
4.095,-0.040889,0,0,0,0,0
4.0975,-0.055246,0,0,0,0,0
4.1,-0.069666,0,0,0,0,0
4.1025,-0.083484,0,0,0,0,0
4.105,-0.09597,0,0,0,0,0
4.1075,-0.10575,0,0,0,0,0
4.11,-0.1114,0,0,0,0,0
4.1125,-0.1116,0,1,0,0,0
4.115,-0.10519,0,0,0,0,0
4.1175,-0.091109,0,0,0,0,0
4.12,-0.06843,0,0,0,0,0
4.1225,-0.036351,0,0,0,0,0
4.125,0.0058057,0,0,0,0,0
4.1275,0.05859,0,0,0,0,0
4.13,0.12243,0,0,0,0,0
4.1325,0.19769,0,0,0,0,0
4.135,0.28399,0,0,0,0,0
4.1375,0.37901,0,0,0,0,0
4.14,0.47997,0,0,0,0,0
4.1425,0.58386,0,0,0,0,0
4.145,0.68739,0,0,0,0,0
4.1475,0.78703,0,0,0,0,0
4.15,0.87896,0,0,0,0,0
4.1525,0.95913,0,0,0,0,0
4.155,1.0232,0,0,0,0,0
4.1575,1.0667,0,0,0,0,0
4.16,1.0859,0,0,1,0,0
4.1625,1.076,0,0,0,0,0
4.165,1.0321,0,0,0,0,0
4.1675,0.95923,0,0,0,0,0
4.17,0.86864,0,0,0,0,0
4.1725,0.76384,0,0,0,0,0
4.175,0.65157,0,0,0,0,0
4.1775,0.53846,0,0,0,0,0
4.18,0.43059,0,0,0,0,0
4.1825,0.33256,0,0,0,0,0
4.185,0.2471,0,0,0,0,0
4.1875,0.17605,0,0,0,0,0
4.19,0.12043,0,0,0,0,0
4.1925,0.080447,0,0,0,0,0
4.195,0.055477,0,0,0,0,0
4.1975,0.044083,0,0,0,1,0
4.2,0.044247,0,0,0,0,0
4.2025,0.054041,0,0,0,0,0
4.205,0.070619,0,0,0,0,0
4.2075,0.091387,0,0,0,0,0
4.21,0.11414,0,0,0,0,0
4.2125,0.13705,0,0,0,0,0
4.215,0.15869,0,0,0,0,0
4.2175,0.17799,0,0,0,0,0
4.22,0.1943,0,0,0,0,0
4.2225,0.20732,0,0,0,0,0
4.225,0.21727,0,0,0,0,0
4.2275,0.22472,0,0,0,0,0
4.23,0.23017,0,0,0,0,0
4.2325,0.23409,0,0,0,0,0
4.235,0.23687,0,0,0,0,0
4.2375,0.23885,0,0,0,0,0
4.24,0.24032,0,0,0,0,0
4.2425,0.24149,0,0,0,0,0
4.245,0.24254,0,0,0,0,0
4.2475,0.24357,0,0,0,0,0
4.25,0.24465,0,0,0,0,0
4.2525,0.2458,0,0,0,0,0
4.255,0.24704,0,0,0,0,0
4.2575,0.2484,0,0,0,0,0
4.26,0.2499,0,0,0,0,0
4.2625,0.25156,0,0,0,0,0
4.265,0.25339,0,0,0,0,0
4.2675,0.2554,0,0,0,0,0
4.27,0.25761,0,0,0,0,0
4.2725,0.26003,0,0,0,0,0
4.275,0.26266,0,0,0,0,0
4.2775,0.26551,0,0,0,0,0
4.28,0.26858,0,0,0,0,0
4.2825,0.27191,0,0,0,0,0
4.285,0.2755,0,0,0,0,0
4.2875,0.27936,0,0,0,0,0
4.29,0.28352,0,0,0,0,0
4.2925,0.28797,0,0,0,0,0
4.295,0.29272,0,0,0,0,0
4.2975,0.29779,0,0,0,0,0
4.3,0.30317,0,0,0,0,0
4.3025,0.30886,0,0,0,0,0
4.305,0.31486,0,0,0,0,0
4.3075,0.32118,0,0,0,0,0
4.31,0.32779,0,0,0,0,0
4.3125,0.3347,0,0,0,0,0
4.315,0.3419,0,0,0,0,0
4.3175,0.34937,0,0,0,0,0
4.32,0.3571,0,0,0,0,0
4.3225,0.36508,0,0,0,0,0
4.325,0.37328,0,0,0,0,0
4.3275,0.38168,0,0,0,0,0
4.33,0.39026,0,0,0,0,0
4.3325,0.399,0,0,0,0,0
4.335,0.40791,0,0,0,0,0
4.3375,0.41694,0,0,0,0,0
4.34,0.42603,0,0,0,0,0
4.3425,0.43515,0,0,0,0,0
4.345,0.44422,0,0,0,0,0
4.3475,0.45322,0,0,0,0,0
4.35,0.46208,0,0,0,0,0
4.3525,0.47076,0,0,0,0,0
4.355,0.47922,0,0,0,0,0
4.3575,0.48741,0,0,0,0,0
4.36,0.4953,0,0,0,0,0
4.3625,0.50284,0,0,0,0,0
4.365,0.50999,0,0,0,0,0
4.3675,0.51672,0,0,0,0,0
4.37,0.52299,0,0,0,0,0
4.3725,0.52877,0,0,0,0,0
4.375,0.53402,0,0,0,0,0
4.3775,0.53872,0,0,0,0,0
4.38,0.54283,0,0,0,0,0
4.3825,0.54632,0,0,0,0,0
4.385,0.54918,0,0,0,0,0
4.3875,0.55137,0,0,0,0,0
4.39,0.55287,0,0,0,0,0
4.3925,0.55366,0,0,0,0,0
4.395,0.55371,0,0,0,0,1
4.3975,0.55301,0,0,0,0,0
4.4,0.55148,0,0,0,0,0
4.4025,0.54916,0,0,0,0,0
4.405,0.5461,0,0,0,0,0
4.4075,0.54234,0,0,0,0,0
4.41,0.53791,0,0,0,0,0
4.4125,0.53286,0,0,0,0,0
4.415,0.52723,0,0,0,0,0
4.4175,0.52106,0,0,0,0,0
4.42,0.51439,0,0,0,0,0
4.4225,0.50725,0,0,0,0,0
4.425,0.4997,0,0,0,0,0
4.4275,0.49176,0,0,0,0,0
4.43,0.48347,0,0,0,0,0
4.4325,0.47488,0,0,0,0,0
4.435,0.46602,0,0,0,0,0
4.4375,0.45693,0,0,0,0,0
4.44,0.44765,0,0,0,0,0
4.4425,0.43821,0,0,0,0,0
4.445,0.42864,0,0,0,0,0
4.4475,0.419,0,0,0,0,0
4.45,0.4093,0,0,0,0,0
4.4525,0.39958,0,0,0,0,0
4.455,0.38989,0,0,0,0,0
4.4575,0.38025,0,0,0,0,0
4.46,0.3707,0,0,0,0,0
4.4625,0.36127,0,0,0,0,0
4.465,0.352,0,0,0,0,0
4.4675,0.34291,0,0,0,0,0
4.47,0.33405,0,0,0,0,0
4.4725,0.32544,0,0,0,0,0
4.475,0.31711,0,0,0,0,0
4.4775,0.30911,0,0,0,0,0
4.48,0.30145,0,0,0,0,0
4.4825,0.29416,0,0,0,0,0
4.485,0.28724,0,0,0,0,0
4.4875,0.28068,0,0,0,0,0
4.49,0.27446,0,0,0,0,0
4.4925,0.26858,0,0,0,0,0
4.495,0.26303,0,0,0,0,0
4.4975,0.25781,0,0,0,0,0
4.5,0.2529,0,0,0,0,0
4.5025,0.24831,0,0,0,0,0
4.505,0.24401,0,0,0,0,0
4.5075,0.24,0,0,0,0,0
4.51,0.23627,0,0,0,0,0
4.5125,0.23282,0,0,0,0,0
4.515,0.22963,0,0,0,0,0
4.5175,0.22669,0,0,0,0,0
4.52,0.224,0,0,0,0,0
4.5225,0.22153,0,0,0,0,0
4.525,0.21929,0,0,0,0,0
4.5275,0.21726,0,0,0,0,0
4.53,0.21543,0,0,0,0,0
4.5325,0.21379,0,0,0,0,0
4.535,0.21233,0,0,0,0,0
4.5375,0.21104,0,0,0,0,0
4.54,0.2099,0,0,0,0,0
4.5425,0.2089,0,0,0,0,0
4.545,0.20802,0,0,0,0,0
4.5475,0.20727,0,0,0,0,0
4.55,0.20662,0,0,0,0,0
4.5525,0.20606,0,0,0,0,0
4.555,0.20558,0,0,0,0,0
4.5575,0.20516,0,0,0,0,0
4.56,0.2048,0,0,0,0,0
4.5625,0.20449,0,0,0,0,0
4.565,0.20424,0,0,0,0,0
4.5675,0.20404,0,0,0,0,0
4.57,0.20388,0,0,0,0,0
4.5725,0.20377,0,0,0,0,0
4.575,0.20369,0,0,0,0,0
4.5775,0.20365,0,0,0,0,0
4.58,0.20364,0,0,0,0,0
4.5825,0.20367,0,0,0,0,0
4.585,0.20371,0,0,0,0,0
4.5875,0.20379,0,0,0,0,0
4.59,0.20388,0,0,0,0,0
4.5925,0.20399,0,0,0,0,0
4.595,0.20412,0,0,0,0,0
4.5975,0.20426,0,0,0,0,0
4.6,0.20441,0,0,0,0,0
4.6025,0.20457,0,0,0,0,0
4.605,0.20474,0,0,0,0,0
4.6075,0.20491,0,0,0,0,0
4.61,0.20509,0,0,0,0,0
4.6125,0.20527,0,0,0,0,0
4.615,0.20545,0,0,0,0,0
4.6175,0.20562,0,0,0,0,0
4.62,0.2058,0,0,0,0,0
4.6225,0.20597,0,0,0,0,0
4.625,0.20615,0,0,0,0,0
4.6275,0.20632,0,0,0,0,0
4.63,0.2065,0,0,0,0,0
4.6325,0.20667,0,0,0,0,0
4.635,0.20684,0,0,0,0,0
4.6375,0.20702,0,0,0,0,0
4.64,0.20719,0,0,0,0,0
4.6425,0.20737,0,0,0,0,0
4.645,0.20754,0,0,0,0,0
4.6475,0.20772,0,0,0,0,0
4.65,0.20789,0,0,0,0,0
4.6525,0.20807,0,0,0,0,0
4.655,0.20824,0,0,0,0,0
4.6575,0.20842,0,0,0,0,0
4.66,0.20859,0,0,0,0,0
4.6625,0.20877,0,0,0,0,0
4.665,0.20894,0,0,0,0,0
4.6675,0.20912,0,0,0,0,0
4.67,0.20929,0,0,0,0,0
4.6725,0.20947,0,0,0,0,0
4.675,0.20965,0,0,0,0,0
4.6775,0.20982,0,0,0,0,0
4.68,0.21,0,0,0,0,0
4.6825,0.21017,0,0,0,0,0
4.685,0.21035,0,0,0,0,0
4.6875,0.21053,0,0,0,0,0
4.69,0.21071,0,0,0,0,0
4.6925,0.21089,0,0,0,0,0
4.695,0.21107,0,0,0,0,0
4.6975,0.21125,0,0,0,0,0
4.7,0.21143,0,0,0,0,0
4.7025,0.21161,0,0,0,0,0
4.705,0.2118,0,0,0,0,0
4.7075,0.21199,0,0,0,0,0
4.71,0.21218,0,0,0,0,0
4.7125,0.21239,0,0,0,0,0
4.715,0.21259,0,0,0,0,0
4.7175,0.21281,0,0,0,0,0
4.72,0.21305,0,0,0,0,0
4.7225,0.2133,0,0,0,0,0
4.725,0.21357,0,0,0,0,0
4.7275,0.21386,0,0,0,0,0
4.73,0.21419,0,0,0,0,0
4.7325,0.21455,0,0,0,0,0
4.735,0.21496,0,0,0,0,0
4.7375,0.21543,0,0,0,0,0
4.74,0.21596,0,0,0,0,0
4.7425,0.21657,0,0,0,0,0
4.745,0.21729,0,0,0,0,0
4.7475,0.21811,0,0,0,0,0
4.75,0.21907,0,0,0,0,0
4.7525,0.22019,0,0,0,0,0
4.755,0.22148,0,0,0,0,0
4.7575,0.22297,0,0,0,0,0
4.76,0.22466,0,0,0,0,0
4.7625,0.22659,0,0,0,0,0
4.765,0.22882,0,0,0,0,0
4.7675,0.23139,0,0,0,0,0
4.77,0.23434,0,0,0,0,0
4.7725,0.2377,0,0,0,0,0
4.775,0.24149,0,0,0,0,0
4.7775,0.24574,0,0,0,0,0
4.78,0.25046,0,0,0,0,0
4.7825,0.25566,0,0,0,0,0
4.785,0.26136,0,0,0,0,0
4.7875,0.26754,0,0,0,0,0
4.79,0.27419,0,0,0,0,0
4.7925,0.28132,0,0,0,0,0
4.795,0.28889,0,0,0,0,0
4.7975,0.29689,0,0,0,0,0
4.8,0.30529,0,0,0,0,0
4.8025,0.31406,0,0,0,0,0
4.805,0.3233,0,0,0,0,0
4.8075,0.3329,0,0,0,0,0
4.81,0.34267,0,0,0,0,0
4.8125,0.35244,0,0,0,0,0
4.815,0.36205,0,0,0,0,0
4.8175,0.37135,0,0,0,0,0
4.82,0.38022,0,0,0,0,0
4.8225,0.38853,0,0,0,0,0
4.825,0.39617,0,0,0,0,0
4.8275,0.40305,0,0,0,0,0
4.83,0.40908,0,0,0,0,0
4.8325,0.41418,0,0,0,0,0
4.835,0.41831,0,0,0,0,0
4.8375,0.42142,0,0,0,0,0
4.84,0.42346,0,0,0,0,0
4.8425,0.42442,1,0,0,0,0
4.845,0.42428,0,0,0,0,0
4.8475,0.42305,0,0,0,0,0
4.85,0.42074,0,0,0,0,0
4.8525,0.41738,0,0,0,0,0
4.855,0.41301,0,0,0,0,0
4.8575,0.40768,0,0,0,0,0
4.86,0.40146,0,0,0,0,0
4.8625,0.39441,0,0,0,0,0
4.865,0.38663,0,0,0,0,0
4.8675,0.37821,0,0,0,0,0
4.87,0.36929,0,0,0,0,0
4.8725,0.36,0,0,0,0,0
4.875,0.35049,0,0,0,0,0
4.8775,0.34086,0,0,0,0,0
4.88,0.33123,0,0,0,0,0
4.8825,0.3217,0,0,0,0,0
4.885,0.31236,0,0,0,0,0
4.8875,0.3033,0,0,0,0,0
4.89,0.29457,0,0,0,0,0
4.8925,0.28623,0,0,0,0,0
4.895,0.27835,0,0,0,0,0
4.8975,0.27095,0,0,0,0,0
4.9,0.26406,0,0,0,0,0
4.9025,0.25771,0,0,0,0,0
4.905,0.25189,0,0,0,0,0
4.9075,0.2466,0,0,0,0,0
4.91,0.24184,0,0,0,0,0
4.9125,0.23757,0,0,0,0,0
4.915,0.23377,0,0,0,0,0
4.9175,0.23037,0,0,0,0,0
4.92,0.22735,0,0,0,0,0
4.9225,0.22472,0,0,0,0,0
4.925,0.22243,0,0,0,0,0
4.9275,0.22043,0,0,0,0,0
4.93,0.21862,0,0,0,0,0
4.9325,0.21684,0,0,0,0,0
4.935,0.21492,0,0,0,0,0
4.9375,0.21266,0,0,0,0,0
4.94,0.2098,0,0,0,0,0
4.9425,0.20606,0,0,0,0,0
4.945,0.20117,0,0,0,0,0
4.9475,0.19479,0,0,0,0,0
4.95,0.18647,0,0,0,0,0
4.9525,0.17605,0,0,0,0,0
4.955,0.16366,0,0,0,0,0
4.9575,0.14973,0,0,0,0,0
4.96,0.13497,0,0,0,0,0
4.9625,0.12042,0,0,0,0,0
4.965,0.10735,0,0,0,0,0
4.9675,0.097343,0,0,0,0,0
4.97,0.092573,0,1,0,0,0
4.9725,0.095079,0,0,0,0,0
4.975,0.10667,0,0,0,0,0
4.9775,0.12895,0,0,0,0,0
4.98,0.16327,0,0,0,0,0
4.9825,0.21078,0,0,0,0,0
4.985,0.27237,0,0,0,0,0
4.9875,0.34798,0,0,0,0,0
4.99,0.43616,0,0,0,0,0
4.9925,0.53423,0,0,0,0,0
4.995,0.63829,0,0,0,0,0
4.9975,0.74313,0,0,0,0,0
5,0.84227,0,0,0,0,0
5.0025,0.92804,0,0,0,0,0
5.005,0.99318,0,0,0,0,0
5.0075,1.0323,0,0,0,0,0
5.01,1.042,0,0,1,0,0
5.0125,1.0213,0,0,0,0,0
5.015,0.97138,0,0,0,0,0
5.0175,0.89555,0,0,0,0,0
5.02,0.79952,0,0,0,0,0
5.0225,0.69122,0,0,0,0,0
5.025,0.57842,0,0,0,0,0
5.0275,0.46668,0,0,0,0,0
5.03,0.36108,0,0,0,0,0
5.0325,0.26565,0,0,0,0,0
5.035,0.18332,0,0,0,0,0
5.0375,0.11595,0,0,0,0,0
5.04,0.064312,0,0,0,0,0
5.0425,0.028109,0,0,0,0,0
5.045,0.0061511,0,0,0,0,0
5.0475,-0.0023958,0,0,0,1,0
5.05,4.9518e-05,0,0,0,0,0
5.0525,0.010909,0,0,0,0,0
5.055,0.027828,0,0,0,0,0
5.0575,0.048675,0,0,0,0,0
5.06,0.071539,0,0,0,0,0
5.0625,0.094733,0,0,0,0,0
5.065,0.11679,0,0,0,0,0
5.0675,0.13648,0,0,0,0,0
5.07,0.15284,0,0,0,0,0
5.0725,0.16591,0,0,0,0,0
5.075,0.17614,0,0,0,0,0
5.0775,0.18396,0,0,0,0,0
5.08,0.18979,0,0,0,0,0
5.0825,0.19404,0,0,0,0,0
5.085,0.19707,0,0,0,0,0
5.0875,0.19926,0,0,0,0,0
5.09,0.20095,0,0,0,0,0
5.0925,0.20241,0,0,0,0,0
5.095,0.20375,0,0,0,0,0
5.0975,0.20503,0,0,0,0,0
5.1,0.20633,0,0,0,0,0
5.1025,0.20769,0,0,0,0,0
5.105,0.20916,0,0,0,0,0
5.1075,0.21077,0,0,0,0,0
5.11,0.21251,0,0,0,0,0
5.1125,0.2144,0,0,0,0,0
5.115,0.21644,0,0,0,0,0
5.1175,0.21867,0,0,0,0,0
5.12,0.22107,0,0,0,0,0
5.1225,0.22368,0,0,0,0,0
5.125,0.22649,0,0,0,0,0
5.1275,0.22953,0,0,0,0,0
5.13,0.2328,0,0,0,0,0
5.1325,0.23631,0,0,0,0,0
5.135,0.24008,0,0,0,0,0
5.1375,0.24411,0,0,0,0,0
5.14,0.24842,0,0,0,0,0
5.1425,0.253,0,0,0,0,0
5.145,0.25786,0,0,0,0,0
5.1475,0.26301,0,0,0,0,0
5.15,0.26847,0,0,0,0,0
5.1525,0.27423,0,0,0,0,0
5.155,0.28029,0,0,0,0,0
5.1575,0.28667,0,0,0,0,0
5.16,0.29335,0,0,0,0,0
5.1625,0.30032,0,0,0,0,0
5.165,0.30759,0,0,0,0,0
5.1675,0.31514,0,0,0,0,0
5.17,0.32296,0,0,0,0,0
5.1725,0.33102,0,0,0,0,0
5.175,0.33932,0,0,0,0,0
5.1775,0.34784,0,0,0,0,0
5.18,0.35654,0,0,0,0,0
5.1825,0.36541,0,0,0,0,0
5.185,0.37441,0,0,0,0,0
5.1875,0.38351,0,0,0,0,0
5.19,0.39269,0,0,0,0,0
5.1925,0.4019,0,0,0,0,0
5.195,0.41111,0,0,0,0,0
5.1975,0.42029,0,0,0,0,0
5.2,0.42943,0,0,0,0,0
5.2025,0.43845,0,0,0,0,0
5.205,0.44731,0,0,0,0,0
5.2075,0.45595,0,0,0,0,0
5.21,0.46431,0,0,0,0,0
5.2125,0.47236,0,0,0,0,0
5.215,0.48005,0,0,0,0,0
5.2175,0.48733,0,0,0,0,0
5.22,0.49416,0,0,0,0,0
5.2225,0.50052,0,0,0,0,0
5.225,0.50635,0,0,0,0,0
5.2275,0.51164,0,0,0,0,0
5.23,0.51636,0,0,0,0,0
5.2325,0.52047,0,0,0,0,0
5.235,0.52395,0,0,0,0,0
5.2375,0.52679,0,0,0,0,0
5.24,0.52896,0,0,0,0,0
5.2425,0.53046,0,0,0,0,0
5.245,0.53126,0,0,0,0,0
5.2475,0.53136,0,0,0,0,1
5.25,0.53076,0,0,0,0,0
5.2525,0.52944,0,0,0,0,0
5.255,0.5274,0,0,0,0,0
5.2575,0.52462,0,0,0,0,0
5.26,0.52106,0,0,0,0,0
5.2625,0.51678,0,0,0,0,0
5.265,0.51184,0,0,0,0,0
5.2675,0.50627,0,0,0,0,0
5.27,0.50014,0,0,0,0,0
5.2725,0.49349,0,0,0,0,0
5.275,0.48636,0,0,0,0,0
5.2775,0.47881,0,0,0,0,0
5.28,0.47087,0,0,0,0,0
5.2825,0.46259,0,0,0,0,0
5.285,0.45401,0,0,0,0,0
5.2875,0.44518,0,0,0,0,0
5.29,0.43613,0,0,0,0,0
5.2925,0.4269,0,0,0,0,0
5.295,0.41754,0,0,0,0,0
5.2975,0.40807,0,0,0,0,0
5.3,0.39853,0,0,0,0,0
5.3025,0.38896,0,0,0,0,0
5.305,0.37939,0,0,0,0,0
5.3075,0.36986,0,0,0,0,0
5.31,0.36039,0,0,0,0,0
5.3125,0.35101,0,0,0,0,0
5.315,0.34176,0,0,0,0,0
5.3175,0.33266,0,0,0,0,0
5.32,0.32374,0,0,0,0,0
5.3225,0.31502,0,0,0,0,0
5.325,0.30653,0,0,0,0,0
5.3275,0.29829,0,0,0,0,0
5.33,0.29033,0,0,0,0,0
5.3325,0.28266,0,0,0,0,0
5.335,0.27531,0,0,0,0,0
5.3375,0.26829,0,0,0,0,0
5.34,0.26163,0,0,0,0,0
5.3425,0.25533,0,0,0,0,0
5.345,0.24938,0,0,0,0,0
5.3475,0.24377,0,0,0,0,0
5.35,0.2385,0,0,0,0,0
5.3525,0.23354,0,0,0,0,0
5.355,0.2289,0,0,0,0,0
5.3575,0.22457,0,0,0,0,0
5.36,0.22053,0,0,0,0,0
5.3625,0.21677,0,0,0,0,0
5.365,0.21329,0,0,0,0,0
5.3675,0.21007,0,0,0,0,0
5.37,0.20711,0,0,0,0,0
5.3725,0.20439,0,0,0,0,0
5.375,0.20191,0,0,0,0,0
5.3775,0.19965,0,0,0,0,0
5.38,0.1976,0,0,0,0,0
5.3825,0.19575,0,0,0,0,0
5.385,0.19409,0,0,0,0,0
5.3875,0.19261,0,0,0,0,0
5.39,0.1913,0,0,0,0,0
5.3925,0.19013,0,0,0,0,0
5.395,0.18911,0,0,0,0,0
5.3975,0.18822,0,0,0,0,0
5.4,0.18745,0,0,0,0,0
5.4025,0.18677,0,0,0,0,0
5.405,0.18619,0,0,0,0,0
5.4075,0.18569,0,0,0,0,0
5.41,0.18526,0,0,0,0,0
5.4125,0.1849,0,0,0,0,0
5.415,0.1846,0,0,0,0,0
5.4175,0.18436,0,0,0,0,0
5.42,0.18417,0,0,0,0,0
5.4225,0.18403,0,0,0,0,0
5.425,0.18395,0,0,0,0,0
5.4275,0.1839,0,0,0,0,0
5.43,0.18389,0,0,0,0,0
5.4325,0.18392,0,0,0,0,0
5.435,0.18398,0,0,0,0,0
5.4375,0.18407,0,0,0,0,0
5.44,0.18418,0,0,0,0,0
5.4425,0.18432,0,0,0,0,0
5.445,0.18448,0,0,0,0,0
5.4475,0.18465,0,0,0,0,0
5.45,0.18483,0,0,0,0,0
5.4525,0.18503,0,0,0,0,0
5.455,0.18523,0,0,0,0,0
5.4575,0.18544,0,0,0,0,0
5.46,0.18565,0,0,0,0,0
5.4625,0.18586,0,0,0,0,0
5.465,0.18608,0,0,0,0,0
5.4675,0.18629,0,0,0,0,0
5.47,0.18649,0,0,0,0,0
5.4725,0.18669,0,0,0,0,0
5.475,0.18689,0,0,0,0,0
5.4775,0.18709,0,0,0,0,0
5.48,0.18728,0,0,0,0,0
5.4825,0.18748,0,0,0,0,0
5.485,0.18767,0,0,0,0,0
5.4875,0.18786,0,0,0,0,0
5.49,0.18806,0,0,0,0,0
5.4925,0.18825,0,0,0,0,0
5.495,0.18843,0,0,0,0,0
5.4975,0.18862,0,0,0,0,0
5.5,0.18881,0,0,0,0,0
5.5025,0.18899,0,0,0,0,0
5.505,0.18918,0,0,0,0,0
5.5075,0.18936,0,0,0,0,0
5.51,0.18954,0,0,0,0,0
5.5125,0.18972,0,0,0,0,0
5.515,0.1899,0,0,0,0,0
5.5175,0.19008,0,0,0,0,0
5.52,0.19026,0,0,0,0,0
5.5225,0.19043,0,0,0,0,0
5.525,0.19061,0,0,0,0,0
5.5275,0.19078,0,0,0,0,0
5.53,0.19095,0,0,0,0,0
5.5325,0.19113,0,0,0,0,0
5.535,0.1913,0,0,0,0,0
5.5375,0.19147,0,0,0,0,0
5.54,0.19165,0,0,0,0,0
5.5425,0.19182,0,0,0,0,0
5.545,0.192,0,0,0,0,0
5.5475,0.19218,0,0,0,0,0
5.55,0.19235,0,0,0,0,0
5.5525,0.19252,0,0,0,0,0
5.555,0.19268,0,0,0,0,0
5.5575,0.19284,0,0,0,0,0
5.56,0.193,0,0,0,0,0
5.5625,0.19316,0,0,0,0,0
5.565,0.19332,0,0,0,0,0
5.5675,0.19348,0,0,0,0,0
5.57,0.19365,0,0,0,0,0
5.5725,0.19383,0,0,0,0,0
5.575,0.19401,0,0,0,0,0
5.5775,0.19422,0,0,0,0,0
5.58,0.19444,0,0,0,0,0
5.5825,0.19469,0,0,0,0,0
5.585,0.19496,0,0,0,0,0
5.5875,0.19528,0,0,0,0,0
5.59,0.19563,0,0,0,0,0
5.5925,0.19603,0,0,0,0,0
5.595,0.19649,0,0,0,0,0
5.5975,0.19698,0,0,0,0,0
5.6,0.19751,0,0,0,0,0
5.6025,0.19811,0,0,0,0,0
5.605,0.19881,0,0,0,0,0
5.6075,0.19967,0,0,0,0,0
5.61,0.2007,0,0,0,0,0
5.6125,0.20195,0,0,0,0,0
5.615,0.20345,0,0,0,0,0
5.6175,0.20522,0,0,0,0,0
5.62,0.20729,0,0,0,0,0
5.6225,0.20968,0,0,0,0,0
5.625,0.21242,0,0,0,0,0
5.6275,0.21553,0,0,0,0,0
5.63,0.21903,0,0,0,0,0
5.6325,0.22293,0,0,0,0,0
5.635,0.22724,0,0,0,0,0
5.6375,0.23198,0,0,0,0,0
5.64,0.23716,0,0,0,0,0
5.6425,0.24279,0,0,0,0,0
5.645,0.24886,0,0,0,0,0
5.6475,0.2554,0,0,0,0,0
5.65,0.26238,0,0,0,0,0
5.6525,0.26983,0,0,0,0,0
5.655,0.27773,0,0,0,0,0
5.6575,0.28608,0,0,0,0,0
5.66,0.29483,0,0,0,0,0
5.6625,0.30389,0,0,0,0,0
5.665,0.31313,0,0,0,0,0
5.6675,0.32245,0,0,0,0,0
5.67,0.33174,0,0,0,0,0
5.6725,0.3409,0,0,0,0,0
5.675,0.34984,0,0,0,0,0
5.6775,0.35844,0,0,0,0,0
5.68,0.36661,0,0,0,0,0
5.6825,0.37425,0,0,0,0,0
5.685,0.38127,0,0,0,0,0
5.6875,0.38759,0,0,0,0,0
5.69,0.3931,0,0,0,0,0
5.6925,0.39773,0,0,0,0,0
5.695,0.40138,0,0,0,0,0
5.6975,0.40398,0,0,0,0,0
5.7,0.40544,0,0,0,0,0
5.7025,0.4057,1,0,0,0,0
5.705,0.40476,0,0,0,0,0
5.7075,0.40267,0,0,0,0,0
5.71,0.3995,0,0,0,0,0
5.7125,0.39531,0,0,0,0,0
5.715,0.39017,0,0,0,0,0
5.7175,0.38415,0,0,0,0,0
5.72,0.37733,0,0,0,0,0
5.7225,0.3698,0,0,0,0,0
5.725,0.36164,0,0,0,0,0
5.7275,0.35295,0,0,0,0,0
5.73,0.34382,0,0,0,0,0
5.7325,0.33437,0,0,0,0,0
5.735,0.32471,0,0,0,0,0
5.7375,0.31494,0,0,0,0,0
5.74,0.30519,0,0,0,0,0
5.7425,0.29559,0,0,0,0,0
5.745,0.28626,0,0,0,0,0
5.7475,0.27726,0,0,0,0,0
5.75,0.26863,0,0,0,0,0
5.7525,0.26042,0,0,0,0,0
5.755,0.25266,0,0,0,0,0
5.7575,0.24538,0,0,0,0,0
5.76,0.23861,0,0,0,0,0
5.7625,0.23234,0,0,0,0,0
5.765,0.2266,0,0,0,0,0
5.7675,0.22138,0,0,0,0,0
5.77,0.21667,0,0,0,0,0
5.7725,0.21245,0,0,0,0,0
5.775,0.20869,0,0,0,0,0
5.7775,0.20536,0,0,0,0,0
5.78,0.20242,0,0,0,0,0
5.7825,0.19982,0,0,0,0,0
5.785,0.1975,0,0,0,0,0
5.7875,0.1954,0,0,0,0,0
5.79,0.19344,0,0,0,0,0
5.7925,0.19148,0,0,0,0,0
5.795,0.18935,0,0,0,0,0
5.7975,0.18686,0,0,0,0,0
5.8,0.18372,0,0,0,0,0
5.8025,0.17965,0,0,0,0,0
5.805,0.17429,0,0,0,0,0
5.8075,0.1673,0,0,0,0,0
5.81,0.15846,0,0,0,0,0
5.8125,0.14768,0,0,0,0,0
5.815,0.13498,0,0,0,0,0
5.8175,0.12078,0,0,0,0,0
5.82,0.10589,0,0,0,0,0
5.8225,0.091366,0,0,0,0,0
5.825,0.078551,0,0,0,0,0
5.8275,0.069026,0,0,0,0,0
5.83,0.064633,0,1,0,0,0
5.8325,0.067296,0,0,0,0,0
5.835,0.078744,0,0,0,0,0
5.8375,0.10109,0,0,0,0,0
5.84,0.13588,0,0,0,0,0
5.8425,0.18404,0,0,0,0,0
5.845,0.24586,0,0,0,0,0
5.8475,0.32098,0,0,0,0,0
5.85,0.40844,0,0,0,0,0
5.8525,0.50634,0,0,0,0,0
5.855,0.61043,0,0,0,0,0
5.8575,0.71515,0,0,0,0,0
5.86,0.81438,0,0,0,0,0
5.8625,0.90144,0,0,0,0,0
5.865,0.96911,0,0,0,0,0
5.8675,1.011,0,0,0,0,0
5.87,1.0239,0,0,1,0,0
5.8725,1.0075,0,0,0,0,0
5.875,0.96375,0,0,0,0,0
5.8775,0.89687,0,0,0,0,0
5.88,0.81201,0,0,0,0,0
5.8825,0.71282,0,0,0,0,0
5.885,0.60432,0,0,0,0,0
5.8875,0.4914,0,0,0,0,0
5.89,0.37883,0,0,0,0,0
5.8925,0.27082,0,0,0,0,0
5.895,0.17034,0,0,0,0,0
5.8975,0.079717,0,0,0,0,0
5.9,0.00066476,0,0,0,0,0
5.9025,-0.065681,0,0,0,0,0
5.905,-0.11878,0,0,0,0,0
5.9075,-0.15866,0,0,0,0,0
5.91,-0.18598,0,0,0,0,0
5.9125,-0.20164,0,0,0,0,0
5.915,-0.20653,0,0,0,1,0
5.9175,-0.20251,0,0,0,0,0
5.92,-0.19141,0,0,0,0,0
5.9225,-0.17492,0,0,0,0,0
5.925,-0.15462,0,0,0,0,0
5.9275,-0.13196,0,0,0,0,0
5.93,-0.10828,0,0,0,0,0
5.9325,-0.0848,0,0,0,0,0
5.935,-0.062618,0,0,0,0,0
5.9375,-0.042709,0,0,0,0,0
5.94,-0.025674,0,0,0,0,0
5.9425,-0.011365,0,0,0,0,0
5.945,0.00047791,0,0,0,0,0
5.9475,0.010118,0,0,0,0,0
5.95,0.017821,0,0,0,0,0
5.9525,0.023853,0,0,0,0,0
5.955,0.028483,0,0,0,0,0
5.9575,0.031983,0,0,0,0,0
5.96,0.034625,0,0,0,0,0
5.9625,0.036684,0,0,0,0,0
5.965,0.038437,0,0,0,0,0
5.9675,0.040054,0,0,0,0,0
5.97,0.041572,0,0,0,0,0
5.9725,0.043038,0,0,0,0,0
5.975,0.044494,0,0,0,0,0
5.9775,0.045976,0,0,0,0,0
5.98,0.047518,0,0,0,0,0
5.9825,0.049146,0,0,0,0,0
5.985,0.050881,0,0,0,0,0
5.9875,0.05274,0,0,0,0,0
5.99,0.054736,0,0,0,0,0
5.9925,0.056874,0,0,0,0,0
5.995,0.059157,0,0,0,0,0
5.9975,0.06158,0,0,0,0,0
6,0.064153,0,0,0,0,0
6.0025,0.06689,0,0,0,0,0
6.005,0.0698,0,0,0,0,0
6.0075,0.072895,0,0,0,0,0
6.01,0.076184,0,0,0,0,0
6.0125,0.079676,0,0,0,0,0
6.015,0.083377,0,0,0,0,0
6.0175,0.087297,0,0,0,0,0
6.02,0.091442,0,0,0,0,0
6.0225,0.095816,0,0,0,0,0
6.025,0.10043,0,0,0,0,0
6.0275,0.10528,0,0,0,0,0
6.03,0.11037,0,0,0,0,0
6.0325,0.11571,0,0,0,0,0
6.035,0.1213,0,0,0,0,0
6.0375,0.12714,0,0,0,0,0
6.04,0.13324,0,0,0,0,0
6.0425,0.13958,0,0,0,0,0
6.045,0.14618,0,0,0,0,0
6.0475,0.15302,0,0,0,0,0
6.05,0.16012,0,0,0,0,0
6.0525,0.16746,0,0,0,0,0
6.055,0.17505,0,0,0,0,0
6.0575,0.18286,0,0,0,0,0
6.06,0.19089,0,0,0,0,0
6.0625,0.19912,0,0,0,0,0
6.065,0.20753,0,0,0,0,0
6.0675,0.21611,0,0,0,0,0
6.07,0.22484,0,0,0,0,0
6.0725,0.2337,0,0,0,0,0
6.075,0.24267,0,0,0,0,0
6.0775,0.25174,0,0,0,0,0
6.08,0.26087,0,0,0,0,0
6.0825,0.27004,0,0,0,0,0
6.085,0.27924,0,0,0,0,0
6.0875,0.28844,0,0,0,0,0
6.09,0.29761,0,0,0,0,0
6.0925,0.30672,0,0,0,0,0
6.095,0.31574,0,0,0,0,0
6.0975,0.32465,0,0,0,0,0
6.1,0.33342,0,0,0,0,0
6.1025,0.34202,0,0,0,0,0
6.105,0.3504,0,0,0,0,0
6.1075,0.35855,0,0,0,0,0
6.11,0.36642,0,0,0,0,0
6.1125,0.37398,0,0,0,0,0
6.115,0.38119,0,0,0,0,0
6.1175,0.38802,0,0,0,0,0
6.12,0.39444,0,0,0,0,0
6.1225,0.40043,0,0,0,0,0
6.125,0.40598,0,0,0,0,0
6.1275,0.41105,0,0,0,0,0
6.13,0.41561,0,0,0,0,0
6.1325,0.41965,0,0,0,0,0
6.135,0.42315,0,0,0,0,0
6.1375,0.42609,0,0,0,0,0
6.14,0.42845,0,0,0,0,0
6.1425,0.43023,0,0,0,0,0
6.145,0.43141,0,0,0,0,0
6.1475,0.43199,0,0,0,0,1
6.15,0.43196,0,0,0,0,0
6.1525,0.43132,0,0,0,0,0
6.155,0.43007,0,0,0,0,0
6.1575,0.42823,0,0,0,0,0
6.16,0.42578,0,0,0,0,0
6.1625,0.42275,0,0,0,0,0
6.165,0.41914,0,0,0,0,0
6.1675,0.41497,0,0,0,0,0
6.17,0.41025,0,0,0,0,0
6.1725,0.40501,0,0,0,0,0
6.175,0.39926,0,0,0,0,0
6.1775,0.39304,0,0,0,0,0
6.18,0.38636,0,0,0,0,0
6.1825,0.37927,0,0,0,0,0
6.185,0.37178,0,0,0,0,0
6.1875,0.36393,0,0,0,0,0
6.19,0.35574,0,0,0,0,0
6.1925,0.34723,0,0,0,0,0
6.195,0.33845,0,0,0,0,0
6.1975,0.32942,0,0,0,0,0
6.2,0.3202,0,0,0,0,0
6.2025,0.3108,0,0,0,0,0
6.205,0.30127,0,0,0,0,0
6.2075,0.29164,0,0,0,0,0
6.21,0.28194,0,0,0,0,0
6.2125,0.2722,0,0,0,0,0
6.215,0.26244,0,0,0,0,0
6.2175,0.25271,0,0,0,0,0
6.22,0.24301,0,0,0,0,0
6.2225,0.23339,0,0,0,0,0
6.225,0.22386,0,0,0,0,0
6.2275,0.21444,0,0,0,0,0
6.23,0.20517,0,0,0,0,0
6.2325,0.19604,0,0,0,0,0
6.235,0.1871,0,0,0,0,0
6.2375,0.17835,0,0,0,0,0
6.24,0.16981,0,0,0,0,0
6.2425,0.1615,0,0,0,0,0
6.245,0.15343,0,0,0,0,0
6.2475,0.14561,0,0,0,0,0
6.25,0.13806,0,0,0,0,0
6.2525,0.13079,0,0,0,0,0
6.255,0.1238,0,0,0,0,0
6.2575,0.11711,0,0,0,0,0
6.26,0.1107,0,0,0,0,0
6.2625,0.10457,0,0,0,0,0
6.265,0.098723,0,0,0,0,0
6.2675,0.093155,0,0,0,0,0
6.27,0.087862,0,0,0,0,0
6.2725,0.082839,0,0,0,0,0
6.275,0.078082,0,0,0,0,0
6.2775,0.073587,0,0,0,0,0
6.28,0.069349,0,0,0,0,0
6.2825,0.065362,0,0,0,0,0
6.285,0.061621,0,0,0,0,0
6.2875,0.058119,0,0,0,0,0
6.29,0.054851,0,0,0,0,0
6.2925,0.051809,0,0,0,0,0
6.295,0.048986,0,0,0,0,0
6.2975,0.046374,0,0,0,0,0
6.3,0.043966,0,0,0,0,0
6.3025,0.041753,0,0,0,0,0
6.305,0.039726,0,0,0,0,0
6.3075,0.037877,0,0,0,0,0
6.31,0.036196,0,0,0,0,0
6.3125,0.034672,0,0,0,0,0
6.315,0.033296,0,0,0,0,0
6.3175,0.032058,0,0,0,0,0
6.32,0.030946,0,0,0,0,0
6.3225,0.029948,0,0,0,0,0
6.325,0.029054,0,0,0,0,0
6.3275,0.028251,0,0,0,0,0
6.33,0.027532,0,0,0,0,0
6.3325,0.026895,0,0,0,0,0
6.335,0.026336,0,0,0,0,0
6.3375,0.02585,0,0,0,0,0
6.34,0.025435,0,0,0,0,0
6.3425,0.025086,0,0,0,0,0
6.345,0.024801,0,0,0,0,0
6.3475,0.024575,0,0,0,0,0
6.35,0.024405,0,0,0,0,0
6.3525,0.024288,0,0,0,0,0
6.355,0.02422,0,0,0,0,0
6.3575,0.024198,0,0,0,0,0
6.36,0.024218,0,0,0,0,0
6.3625,0.024278,0,0,0,0,0
6.365,0.024373,0,0,0,0,0
6.3675,0.0245,0,0,0,0,0
6.37,0.024657,0,0,0,0,0
6.3725,0.024839,0,0,0,0,0
6.375,0.025044,0,0,0,0,0
6.3775,0.025269,0,0,0,0,0
6.38,0.025509,0,0,0,0,0
6.3825,0.025763,0,0,0,0,0
6.385,0.026027,0,0,0,0,0
6.3875,0.026298,0,0,0,0,0
6.39,0.026573,0,0,0,0,0
6.3925,0.026848,0,0,0,0,0
6.395,0.027122,0,0,0,0,0
6.3975,0.02739,0,0,0,0,0
6.4,0.02765,0,0,0,0,0
6.4025,0.027901,0,0,0,0,0
6.405,0.02815,0,0,0,0,0
6.4075,0.028397,0,0,0,0,0
6.41,0.028643,0,0,0,0,0
6.4125,0.028887,0,0,0,0,0
6.415,0.02913,0,0,0,0,0
6.4175,0.029372,0,0,0,0,0
6.42,0.029612,0,0,0,0,0
6.4225,0.02985,0,0,0,0,0
6.425,0.030088,0,0,0,0,0
6.4275,0.030324,0,0,0,0,0
6.43,0.030558,0,0,0,0,0
6.4325,0.030791,0,0,0,0,0
6.435,0.031023,0,0,0,0,0
6.4375,0.031253,0,0,0,0,0
6.44,0.031482,0,0,0,0,0
6.4425,0.031709,0,0,0,0,0
6.445,0.031936,0,0,0,0,0
6.4475,0.03216,0,0,0,0,0
6.45,0.032384,0,0,0,0,0
6.4525,0.032606,0,0,0,0,0
6.455,0.032826,0,0,0,0,0
6.4575,0.033046,0,0,0,0,0
6.46,0.033264,0,0,0,0,0
6.4625,0.033481,0,0,0,0,0
6.465,0.033696,0,0,0,0,0
6.4675,0.03391,0,0,0,0,0
6.47,0.034123,0,0,0,0,0
6.4725,0.034335,0,0,0,0,0
6.475,0.034545,0,0,0,0,0
6.4775,0.034754,0,0,0,0,0
6.48,0.034962,0,0,0,0,0
6.4825,0.035169,0,0,0,0,0
6.485,0.035375,0,0,0,0,0
6.4875,0.035579,0,0,0,0,0
6.49,0.035783,0,0,0,0,0
6.4925,0.035985,0,0,0,0,0
6.495,0.036187,0,0,0,0,0
6.4975,0.036396,0,0,0,0,0
6.5,0.036615,0,0,0,0,0
6.5025,0.03684,0,0,0,0,0
6.505,0.037068,0,0,0,0,0
6.5075,0.037295,0,0,0,0,0
6.51,0.037519,0,0,0,0,0
6.5125,0.037738,0,0,0,0,0
6.515,0.037952,0,0,0,0,0
6.5175,0.03816,0,0,0,0,0
6.52,0.038362,0,0,0,0,0
6.5225,0.038558,0,0,0,0,0
6.525,0.038749,0,0,0,0,0
6.5275,0.038937,0,0,0,0,0
6.53,0.039125,0,0,0,0,0
6.5325,0.039314,0,0,0,0,0
6.535,0.039509,0,0,0,0,0
6.5375,0.039712,0,0,0,0,0
6.54,0.03993,0,0,0,0,0
6.5425,0.040165,0,0,0,0,0
6.545,0.040425,0,0,0,0,0
6.5475,0.040714,0,0,0,0,0
6.55,0.041041,0,0,0,0,0
6.5525,0.041411,0,0,0,0,0
6.555,0.041833,0,0,0,0,0
6.5575,0.042314,0,0,0,0,0
6.56,0.042865,0,0,0,0,0
6.5625,0.043494,0,0,0,0,0
6.565,0.044211,0,0,0,0,0
6.5675,0.045027,0,0,0,0,0
6.57,0.045952,0,0,0,0,0
6.5725,0.046999,0,0,0,0,0
6.575,0.04818,0,0,0,0,0
6.5775,0.049508,0,0,0,0,0
6.58,0.050995,0,0,0,0,0
6.5825,0.052655,0,0,0,0,0
6.585,0.054504,0,0,0,0,0
6.5875,0.056556,0,0,0,0,0
6.59,0.058827,0,0,0,0,0
6.5925,0.061332,0,0,0,0,0
6.595,0.064089,0,0,0,0,0
6.5975,0.067114,0,0,0,0,0
6.6,0.070425,0,0,0,0,0
6.6025,0.074042,0,0,0,0,0
6.605,0.077982,0,0,0,0,0
6.6075,0.082265,0,0,0,0,0
6.61,0.086911,0,0,0,0,0
6.6125,0.09194,0,0,0,0,0
6.615,0.097374,0,0,0,0,0
6.6175,0.10323,0,0,0,0,0
6.62,0.10954,0,0,0,0,0
6.6225,0.11632,0,0,0,0,0
6.625,0.12358,0,0,0,0,0
6.6275,0.13123,0,0,0,0,0
6.63,0.13924,0,0,0,0,0
6.6325,0.14757,0,0,0,0,0
6.635,0.15618,0,0,0,0,0
6.6375,0.16504,0,0,0,0,0
6.64,0.17408,0,0,0,0,0
6.6425,0.18327,0,0,0,0,0
6.645,0.19252,0,0,0,0,0
6.6475,0.20178,0,0,0,0,0
6.65,0.21096,0,0,0,0,0
6.6525,0.22,0,0,0,0,0
6.655,0.22881,0,0,0,0,0
6.6575,0.23732,0,0,0,0,0
6.66,0.24542,0,0,0,0,0
6.6625,0.25305,0,0,0,0,0
6.665,0.26011,0,0,0,0,0
6.6675,0.26655,0,0,0,0,0
6.67,0.27228,0,0,0,0,0
6.6725,0.27725,0,0,0,0,0
6.675,0.28141,0,0,0,0,0
6.6775,0.2847,0,0,0,0,0
6.68,0.28708,0,0,0,0,0
6.6825,0.28851,0,0,0,0,0
6.685,0.28896,1,0,0,0,0
6.6875,0.28842,0,0,0,0,0
6.69,0.28691,0,0,0,0,0
6.6925,0.28447,0,0,0,0,0
6.695,0.28112,0,0,0,0,0
6.6975,0.27689,0,0,0,0,0
6.7,0.27185,0,0,0,0,0
6.7025,0.26602,0,0,0,0,0
6.705,0.25946,0,0,0,0,0
6.7075,0.25224,0,0,0,0,0
6.71,0.24442,0,0,0,0,0
6.7125,0.23607,0,0,0,0,0
6.715,0.22727,0,0,0,0,0
6.7175,0.21809,0,0,0,0,0
6.72,0.20864,0,0,0,0,0
6.7225,0.19899,0,0,0,0,0
6.725,0.18925,0,0,0,0,0
6.7275,0.17951,0,0,0,0,0
6.73,0.16984,0,0,0,0,0
6.7325,0.16029,0,0,0,0,0
6.735,0.15093,0,0,0,0,0
6.7375,0.1418,0,0,0,0,0
6.74,0.13295,0,0,0,0,0
6.7425,0.12444,0,0,0,0,0
6.745,0.11629,0,0,0,0,0
6.7475,0.10853,0,0,0,0,0
6.75,0.1012,0,0,0,0,0
6.7525,0.094295,0,0,0,0,0
6.755,0.087842,0,0,0,0,0
6.7575,0.081842,0,0,0,0,0
6.76,0.076294,0,0,0,0,0
6.7625,0.07119,0,0,0,0,0
6.765,0.066516,0,0,0,0,0
6.7675,0.062253,0,0,0,0,0
6.77,0.05835,0,0,0,0,0
6.7725,0.054755,0,0,0,0,0
6.775,0.051495,0,0,0,0,0
6.7775,0.048577,0,0,0,0,0
6.78,0.045987,0,0,0,0,0
6.7825,0.043691,0,0,0,0,0
6.785,0.041634,0,0,0,0,0
6.7875,0.039742,0,0,0,0,0
6.79,0.037919,0,0,0,0,0
6.7925,0.036047,0,0,0,0,0
6.795,0.033991,0,0,0,0,0
6.7975,0.031591,0,0,0,0,0
6.8,0.02867,0,0,0,0,0
6.8025,0.025029,0,0,0,0,0
6.805,0.020447,0,0,0,0,0
6.8075,0.014685,0,0,0,0,0
6.81,0.0074825,0,0,0,0,0
6.8125,-0.0014135,0,0,0,0,0
6.815,-0.012022,0,0,0,0,0
6.8175,-0.024243,0,0,0,0,0
6.82,-0.037813,0,0,0,0,0
6.8225,-0.052288,0,0,0,0,0
6.825,-0.067043,0,0,0,0,0
6.8275,-0.08127,0,0,0,0,0
6.83,-0.093982,0,0,0,0,0
6.8325,-0.10401,0,0,0,0,0
6.835,-0.11,0,0,0,0,0
6.8375,-0.11049,0,1,0,0,0
6.84,-0.10448,0,0,0,0,0
6.8425,-0.090325,0,0,0,0,0
6.845,-0.066519,0,0,0,0,0
6.8475,-0.031983,0,0,0,0,0
6.85,0.013946,0,0,0,0,0
6.8525,0.071508,0,0,0,0,0
6.855,0.14052,0,0,0,0,0
6.8575,0.22039,0,0,0,0,0
6.86,0.31009,0,0,0,0,0
6.8625,0.40823,0,0,0,0,0
6.865,0.51357,0,0,0,0,0
6.8675,0.62076,0,0,0,0,0
6.87,0.72372,0,0,0,0,0
6.8725,0.81711,0,0,0,0,0
6.875,0.89638,0,0,0,0,0
6.8775,0.95775,0,0,0,0,0
6.88,0.99821,0,0,0,0,0
6.8825,1.0155,0,0,1,0,0
6.885,1.0083,0,0,0,0,0
6.8875,0.97568,0,0,0,0,0
6.89,0.91885,0,0,0,0,0
6.8925,0.84196,0,0,0,0,0
6.895,0.74955,0,0,0,0,0
6.8975,0.64604,0,0,0,0,0
6.9,0.53567,0,0,0,0,0
6.9025,0.42252,0,0,0,0,0
6.905,0.31052,0,0,0,0,0
6.9075,0.20345,0,0,0,0,0
6.91,0.10478,0,0,0,0,0
6.9125,0.016409,0,0,0,0,0
6.915,-0.060591,0,0,0,0,0
6.9175,-0.12551,0,0,0,0,0
6.92,-0.17799,0,0,0,0,0
6.9225,-0.21803,0,0,0,0,0
6.925,-0.24599,0,0,0,0,0
6.9275,-0.26258,0,0,0,0,0
6.93,-0.26888,0,0,0,1,0
6.9325,-0.2663,0,0,0,0,0
6.935,-0.25634,0,0,0,0,0
6.9375,-0.24041,0,0,0,0,0
6.94,-0.22038,0,0,0,0,0
6.9425,-0.19787,0,0,0,0,0
6.945,-0.1743,0,0,0,0,0
6.9475,-0.15084,0,0,0,0,0
6.95,-0.12845,0,0,0,0,0
6.9525,-0.10785,0,0,0,0,0
6.955,-0.08952,0,0,0,0,0
6.9575,-0.073735,0,0,0,0,0
6.96,-0.060524,0,0,0,0,0
6.9625,-0.049696,0,0,0,0,0
6.965,-0.040974,0,0,0,0,0
6.9675,-0.034071,0,0,0,0,0
6.97,-0.028684,0,0,0,0,0
6.9725,-0.024537,0,0,0,0,0
6.975,-0.021379,0,0,0,0,0
6.9775,-0.018983,0,0,0,0,0
6.98,-0.017147,0,0,0,0,0
6.9825,-0.015696,0,0,0,0,0
6.985,-0.014477,0,0,0,0,0
6.9875,-0.013363,0,0,0,0,0
6.99,-0.012253,0,0,0,0,0
6.9925,-0.011069,0,0,0,0,0
6.995,-0.0097589,0,0,0,0,0
6.9975,-0.0082958,0,0,0,0,0
7,-0.0066772,0,0,0,0,0
7.0025,-0.0049256,0,0,0,0,0
7.005,-0.0030884,0,0,0,0,0
7.0075,-0.0012297,0,0,0,0,0
7.01,0.00071687,0,0,0,0,0
7.0125,0.0027957,0,0,0,0,0
7.015,0.0050157,0,0,0,0,0
7.0175,0.0073852,0,0,0,0,0
7.02,0.0099126,0,0,0,0,0
7.0225,0.012606,0,0,0,0,0
7.025,0.015473,0,0,0,0,0
7.0275,0.018521,0,0,0,0,0
7.03,0.021756,0,0,0,0,0
7.0325,0.025187,0,0,0,0,0
7.035,0.02882,0,0,0,0,0
7.0375,0.03266,0,0,0,0,0
7.04,0.036714,0,0,0,0,0
7.0425,0.040988,0,0,0,0,0
7.045,0.045487,0,0,0,0,0
7.0475,0.050217,0,0,0,0,0
7.05,0.055181,0,0,0,0,0
7.0525,0.060386,0,0,0,0,0
7.055,0.065833,0,0,0,0,0
7.0575,0.071522,0,0,0,0,0
7.06,0.077453,0,0,0,0,0
7.0625,0.083628,0,0,0,0,0
7.065,0.090047,0,0,0,0,0
7.0675,0.096708,0,0,0,0,0
7.07,0.10361,0,0,0,0,0
7.0725,0.11074,0,0,0,0,0
7.075,0.1181,0,0,0,0,0
7.0775,0.12568,0,0,0,0,0
7.08,0.13348,0,0,0,0,0
7.0825,0.14148,0,0,0,0,0
7.085,0.14966,0,0,0,0,0
7.0875,0.15803,0,0,0,0,0
7.09,0.16655,0,0,0,0,0
7.0925,0.17522,0,0,0,0,0
7.095,0.18403,0,0,0,0,0
7.0975,0.19294,0,0,0,0,0
7.1,0.20195,0,0,0,0,0
7.1025,0.21102,0,0,0,0,0
7.105,0.22014,0,0,0,0,0
7.1075,0.22928,0,0,0,0,0
7.11,0.23842,0,0,0,0,0
7.1125,0.24753,0,0,0,0,0
7.115,0.25658,0,0,0,0,0
7.1175,0.26555,0,0,0,0,0
7.12,0.27441,0,0,0,0,0
7.1225,0.28314,0,0,0,0,0
7.125,0.29171,0,0,0,0,0
7.1275,0.30008,0,0,0,0,0
7.13,0.30822,0,0,0,0,0
7.1325,0.31609,0,0,0,0,0
7.135,0.32367,0,0,0,0,0
7.1375,0.33092,0,0,0,0,0
7.14,0.33782,0,0,0,0,0
7.1425,0.34434,0,0,0,0,0
7.145,0.35045,0,0,0,0,0
7.1475,0.35614,0,0,0,0,0
7.15,0.36138,0,0,0,0,0
7.1525,0.36616,0,0,0,0,0
7.155,0.37044,0,0,0,0,0
7.1575,0.37422,0,0,0,0,0
7.16,0.37749,0,0,0,0,0
7.1625,0.38022,0,0,0,0,0
7.165,0.38241,0,0,0,0,0
7.1675,0.38404,0,0,0,0,0
7.17,0.38511,0,0,0,0,0
7.1725,0.38562,0,0,0,0,1
7.175,0.38554,0,0,0,0,0
7.1775,0.38488,0,0,0,0,0
7.18,0.38365,0,0,0,0,0
7.1825,0.38182,0,0,0,0,0
7.185,0.37939,0,0,0,0,0
7.1875,0.37637,0,0,0,0,0
7.19,0.37278,0,0,0,0,0
7.1925,0.36866,0,0,0,0,0
7.195,0.36401,0,0,0,0,0
7.1975,0.35887,0,0,0,0,0
7.2,0.35326,0,0,0,0,0
7.2025,0.34719,0,0,0,0,0
7.205,0.34071,0,0,0,0,0
7.2075,0.33382,0,0,0,0,0
7.21,0.32657,0,0,0,0,0
7.2125,0.31896,0,0,0,0,0
7.215,0.31102,0,0,0,0,0
7.2175,0.30279,0,0,0,0,0
7.22,0.29428,0,0,0,0,0
7.2225,0.28553,0,0,0,0,0
7.225,0.27655,0,0,0,0,0
7.2275,0.26738,0,0,0,0,0
7.23,0.25803,0,0,0,0,0
7.2325,0.24855,0,0,0,0,0
7.235,0.23894,0,0,0,0,0
7.2375,0.22925,0,0,0,0,0
7.24,0.2195,0,0,0,0,0
7.2425,0.2097,0,0,0,0,0
7.245,0.19991,0,0,0,0,0
7.2475,0.19013,0,0,0,0,0
7.25,0.1804,0,0,0,0,0
7.2525,0.17075,0,0,0,0,0
7.255,0.1612,0,0,0,0,0
7.2575,0.15179,0,0,0,0,0
7.26,0.14254,0,0,0,0,0
7.2625,0.13348,0,0,0,0,0
7.265,0.12463,0,0,0,0,0
7.2675,0.116,0,0,0,0,0
7.27,0.10759,0,0,0,0,0
7.2725,0.099415,0,0,0,0,0
7.275,0.091476,0,0,0,0,0
7.2775,0.083781,0,0,0,0,0
7.28,0.076336,0,0,0,0,0
7.2825,0.069146,0,0,0,0,0
7.285,0.062216,0,0,0,0,0
7.2875,0.055548,0,0,0,0,0
7.29,0.049146,0,0,0,0,0
7.2925,0.04301,0,0,0,0,0
7.295,0.037143,0,0,0,0,0
7.2975,0.031545,0,0,0,0,0
7.3,0.026215,0,0,0,0,0
7.3025,0.021152,0,0,0,0,0
7.305,0.016354,0,0,0,0,0
7.3075,0.011818,0,0,0,0,0
7.31,0.0075409,0,0,0,0,0
7.3125,0.0035185,0,0,0,0,0
7.315,-0.00025423,0,0,0,0,0
7.3175,-0.0037831,0,0,0,0,0
7.32,-0.0070748,0,0,0,0,0
7.3225,-0.010136,0,0,0,0,0
7.325,-0.012976,0,0,0,0,0
7.3275,-0.015603,0,0,0,0,0
7.33,-0.018026,0,0,0,0,0
7.3325,-0.020255,0,0,0,0,0
7.335,-0.022303,0,0,0,0,0
7.3375,-0.024181,0,0,0,0,0
7.34,-0.025901,0,0,0,0,0
7.3425,-0.027477,0,0,0,0,0
7.345,-0.028922,0,0,0,0,0
7.3475,-0.030237,0,0,0,0,0
7.35,-0.031424,0,0,0,0,0
7.3525,-0.032492,0,0,0,0,0
7.355,-0.033446,0,0,0,0,0
7.3575,-0.034295,0,0,0,0,0
7.36,-0.035044,0,0,0,0,0
7.3625,-0.0357,0,0,0,0,0
7.365,-0.036269,0,0,0,0,0
7.3675,-0.036757,0,0,0,0,0
7.37,-0.037169,0,0,0,0,0
7.3725,-0.037512,0,0,0,0,0
7.375,-0.037789,0,0,0,0,0
7.3775,-0.038006,0,0,0,0,0
7.38,-0.038167,0,0,0,0,0
7.3825,-0.038277,0,0,0,0,0
7.385,-0.038339,0,0,0,0,0
7.3875,-0.038358,0,0,0,0,0
7.39,-0.038337,0,0,0,0,0
7.3925,-0.038279,0,0,0,0,0
7.395,-0.038187,0,0,0,0,0
7.3975,-0.038064,0,0,0,0,0
7.4,-0.037913,0,0,0,0,0
7.4025,-0.037736,0,0,0,0,0
7.405,-0.037534,0,0,0,0,0
7.4075,-0.03731,0,0,0,0,0
7.41,-0.037065,0,0,0,0,0
7.4125,-0.0368,0,0,0,0,0
7.415,-0.036516,0,0,0,0,0
7.4175,-0.036214,0,0,0,0,0
7.42,-0.035895,0,0,0,0,0
7.4225,-0.035558,0,0,0,0,0
7.425,-0.035205,0,0,0,0,0
7.4275,-0.03485,0,0,0,0,0
7.43,-0.034496,0,0,0,0,0
7.4325,-0.034141,0,0,0,0,0
7.435,-0.033787,0,0,0,0,0
7.4375,-0.033434,0,0,0,0,0
7.44,-0.03308,0,0,0,0,0
7.4425,-0.032727,0,0,0,0,0
7.445,-0.032373,0,0,0,0,0
7.4475,-0.032021,0,0,0,0,0
7.45,-0.031668,0,0,0,0,0
7.4525,-0.031315,0,0,0,0,0
7.455,-0.030963,0,0,0,0,0
7.4575,-0.030611,0,0,0,0,0
7.46,-0.030259,0,0,0,0,0
7.4625,-0.029908,0,0,0,0,0
7.465,-0.029556,0,0,0,0,0
7.4675,-0.029205,0,0,0,0,0
7.47,-0.028854,0,0,0,0,0
7.4725,-0.028503,0,0,0,0,0
7.475,-0.028153,0,0,0,0,0
7.4775,-0.027802,0,0,0,0,0
7.48,-0.027452,0,0,0,0,0
7.4825,-0.027102,0,0,0,0,0
7.485,-0.026752,0,0,0,0,0
7.4875,-0.026402,0,0,0,0,0
7.49,-0.026053,0,0,0,0,0
7.4925,-0.025703,0,0,0,0,0
7.495,-0.025354,0,0,0,0,0
7.4975,-0.025005,0,0,0,0,0
7.5,-0.024656,0,0,0,0,0
7.5025,-0.024307,0,0,0,0,0
7.505,-0.023958,0,0,0,0,0
7.5075,-0.02361,0,0,0,0,0
7.51,-0.023258,0,0,0,0,0
7.5125,-0.022904,0,0,0,0,0
7.515,-0.022548,0,0,0,0,0
7.5175,-0.022191,0,0,0,0,0
7.52,-0.021834,0,0,0,0,0
7.5225,-0.021477,0,0,0,0,0
7.525,-0.021122,0,0,0,0,0
7.5275,-0.020768,0,0,0,0,0
7.53,-0.020415,0,0,0,0,0
7.5325,-0.020065,0,0,0,0,0
7.535,-0.019717,0,0,0,0,0
7.5375,-0.019371,0,0,0,0,0
7.54,-0.019027,0,0,0,0,0
7.5425,-0.018685,0,0,0,0,0
7.545,-0.018344,0,0,0,0,0
7.5475,-0.018004,0,0,0,0,0
7.55,-0.017665,0,0,0,0,0
7.5525,-0.017326,0,0,0,0,0
7.555,-0.016986,0,0,0,0,0
7.5575,-0.016645,0,0,0,0,0
7.56,-0.016301,0,0,0,0,0
7.5625,-0.015953,0,0,0,0,0
7.565,-0.0156,0,0,0,0,0
7.5675,-0.015241,0,0,0,0,0
7.57,-0.014875,0,0,0,0,0
7.5725,-0.014499,0,0,0,0,0
7.575,-0.014113,0,0,0,0,0
7.5775,-0.013715,0,0,0,0,0
7.58,-0.013302,0,0,0,0,0
7.5825,-0.012873,0,0,0,0,0
7.585,-0.012426,0,0,0,0,0
7.5875,-0.011959,0,0,0,0,0
7.59,-0.01147,0,0,0,0,0
7.5925,-0.010955,0,0,0,0,0
7.595,-0.010433,0,0,0,0,0
7.5975,-0.0099352,0,0,0,0,0
7.6,-0.009437,0,0,0,0,0
7.6025,-0.0089141,0,0,0,0,0
7.605,-0.0083424,0,0,0,0,0
7.6075,-0.0076989,0,0,0,0,0
7.61,-0.0069614,0,0,0,0,0
7.6125,-0.0061086,0,0,0,0,0
7.615,-0.00512,0,0,0,0,0
7.6175,-0.0039763,0,0,0,0,0
7.62,-0.0026587,0,0,0,0,0
7.6225,-0.0011497,0,0,0,0,0
7.625,0.00056772,0,0,0,0,0
7.6275,0.0025093,0,0,0,0,0
7.63,0.0046902,0,0,0,0,0
7.6325,0.0071243,0,0,0,0,0
7.635,0.0098251,0,0,0,0,0
7.6375,0.012805,0,0,0,0,0
7.64,0.016075,0,0,0,0,0
7.6425,0.019645,0,0,0,0,0
7.645,0.023527,0,0,0,0,0
7.6475,0.027727,0,0,0,0,0
7.65,0.032255,0,0,0,0,0
7.6525,0.037116,0,0,0,0,0
7.655,0.042317,0,0,0,0,0
7.6575,0.047864,0,0,0,0,0
7.66,0.05376,0,0,0,0,0
7.6625,0.060008,0,0,0,0,0
7.665,0.066612,0,0,0,0,0
7.6675,0.073573,0,0,0,0,0
7.67,0.080891,0,0,0,0,0
7.6725,0.088566,0,0,0,0,0
7.675,0.096597,0,0,0,0,0
7.6775,0.10498,0,0,0,0,0
7.68,0.11372,0,0,0,0,0
7.6825,0.12275,0,0,0,0,0
7.685,0.132,0,0,0,0,0
7.6875,0.14139,0,0,0,0,0
7.69,0.15087,0,0,0,0,0
7.6925,0.16034,0,0,0,0,0
7.695,0.16975,0,0,0,0,0
7.6975,0.17903,0,0,0,0,0
7.7,0.18811,0,0,0,0,0
7.7025,0.19692,0,0,0,0,0
7.705,0.20539,0,0,0,0,0
7.7075,0.21345,0,0,0,0,0
7.71,0.22105,0,0,0,0,0
7.7125,0.22812,0,0,0,0,0
7.715,0.23458,0,0,0,0,0
7.7175,0.24039,0,0,0,0,0
7.72,0.24547,0,0,0,0,0
7.7225,0.24977,0,0,0,0,0
7.725,0.25321,0,0,0,0,0
7.7275,0.25575,0,0,0,0,0
7.73,0.25736,0,0,0,0,0
7.7325,0.25802,1,0,0,0,0
7.735,0.25777,0,0,0,0,0
7.7375,0.25659,0,0,0,0,0
7.74,0.25452,0,0,0,0,0
7.7425,0.25157,0,0,0,0,0
7.745,0.24778,0,0,0,0,0
7.7475,0.24318,0,0,0,0,0
7.75,0.23781,0,0,0,0,0
7.7525,0.23172,0,0,0,0,0
7.755,0.22496,0,0,0,0,0
7.7575,0.21759,0,0,0,0,0
7.76,0.20968,0,0,0,0,0
7.7625,0.20129,0,0,0,0,0
7.765,0.19251,0,0,0,0,0
7.7675,0.18341,0,0,0,0,0
7.77,0.17409,0,0,0,0,0
7.7725,0.16463,0,0,0,0,0
7.775,0.15513,0,0,0,0,0
7.7775,0.14564,0,0,0,0,0
7.78,0.13621,0,0,0,0,0
7.7825,0.12691,0,0,0,0,0
7.785,0.1178,0,0,0,0,0
7.7875,0.10892,0,0,0,0,0
7.79,0.10032,0,0,0,0,0
7.7925,0.092038,0,0,0,0,0
7.795,0.084113,0,0,0,0,0
7.7975,0.076568,0,0,0,0,0
7.8,0.069427,0,0,0,0,0
7.8025,0.062704,0,0,0,0,0
7.805,0.05641,0,0,0,0,0
7.8075,0.050548,0,0,0,0,0
7.81,0.045119,0,0,0,0,0
7.8125,0.040113,0,0,0,0,0
7.815,0.035707,0,0,0,0,0
7.8175,0.032392,0,0,0,0,0
7.82,0.029954,0,0,0,0,0
7.8225,0.028144,0,0,0,0,0
7.825,0.026735,0,0,0,0,0
7.8275,0.025517,0,0,0,0,0
7.83,0.0243,0,0,0,0,0
7.8325,0.022914,0,0,0,0,0
7.835,0.021207,0,0,0,0,0
7.8375,0.019048,0,0,0,0,0
7.84,0.016326,0,0,0,0,0
7.8425,0.012948,0,0,0,0,0
7.845,0.0088396,0,0,0,0,0
7.8475,0.0039488,0,0,0,0,0
7.85,-0.0017592,0,0,0,0,0
7.8525,-0.0082991,0,0,0,0,0
7.855,-0.015666,0,0,0,0,0
7.8575,-0.023836,0,0,0,0,0
7.86,-0.032765,0,0,0,0,0
7.8625,-0.04239,0,0,0,0,0
7.865,-0.052629,0,0,0,0,0
7.8675,-0.063379,0,0,0,0,0
7.87,-0.074518,0,0,0,0,0
7.8725,-0.085907,0,0,0,0,0
7.875,-0.097384,0,0,0,0,0
7.8775,-0.10877,0,0,0,0,0
7.88,-0.11987,0,0,0,0,0
7.8825,-0.13045,0,0,0,0,0
7.885,-0.14029,0,0,0,0,0
7.8875,-0.14828,0,0,0,0,0
7.89,-0.15189,0,1,0,0,0
7.8925,-0.14962,0,0,0,0,0
7.895,-0.14016,0,0,0,0,0
7.8975,-0.12238,0,0,0,0,0
7.9,-0.095331,0,0,0,0,0
7.9025,-0.058252,0,0,0,0,0
7.905,-0.010547,0,0,0,0,0
7.9075,0.0482,0,0,0,0,0
7.91,0.11822,0,0,0,0,0
7.9125,0.19958,0,0,0,0,0
7.915,0.29081,0,0,0,0,0
7.9175,0.38942,0,0,0,0,0
7.92,0.49257,0,0,0,0,0
7.9225,0.59702,0,0,0,0,0
7.925,0.69918,0,0,0,0,0
7.9275,0.79511,0,0,0,0,0
7.93,0.88047,0,0,0,0,0
7.9325,0.95056,0,0,0,0,0
7.935,1.0004,0,0,0,0,0
7.9375,1.0271,0,0,0,0,0
7.94,1.0291,0,0,1,0,0
7.9425,1.0053,0,0,0,0,0
7.945,0.95623,0,0,0,0,0
7.9475,0.88412,0,0,0,0,0
7.95,0.79302,0,0,0,0,0
7.9525,0.68885,0,0,0,0,0
7.955,0.57744,0,0,0,0,0
7.9575,0.46412,0,0,0,0,0
7.96,0.35373,0,0,0,0,0
7.9625,0.25061,0,0,0,0,0
7.965,0.15778,0,0,0,0,0
7.9675,0.076964,0,0,0,0,0
7.97,0.0093417,0,0,0,0,0
7.9725,-0.04446,0,0,0,0,0
7.975,-0.084359,0,0,0,0,0
7.9775,-0.11081,0,0,0,0,0
7.98,-0.12483,0,0,0,0,0
7.9825,-0.12796,0,0,0,1,0
7.985,-0.12185,0,0,0,0,0
7.9875,-0.10828,0,0,0,0,0
7.99,-0.089563,0,0,0,0,0
7.9925,-0.067703,0,0,0,0,0
7.995,-0.04443,0,0,0,0,0
7.9975,-0.021176,0,0,0,0,0
8,0.00091461,0,0,0,0,0
8.0025,0.020989,0,0,0,0,0
8.005,0.038485,0,0,0,0,0
8.0075,0.053132,0,0,0,0,0
8.01,0.064887,0,0,0,0,0
8.0125,0.074071,0,0,0,0,0
8.015,0.081141,0,0,0,0,0
8.0175,0.086508,0,0,0,0,0
8.02,0.090541,0,0,0,0,0
8.0225,0.093566,0,0,0,0,0
8.025,0.095863,0,0,0,0,0
8.0275,0.09767,0,0,0,0,0
8.03,0.099181,0,0,0,0,0
8.0325,0.10055,0,0,0,0,0
8.035,0.10187,0,0,0,0,0
8.0375,0.10322,0,0,0,0,0
8.04,0.10462,0,0,0,0,0
8.0425,0.10604,0,0,0,0,0
8.045,0.10755,0,0,0,0,0
8.0475,0.10917,0,0,0,0,0
8.05,0.11092,0,0,0,0,0
8.0525,0.1128,0,0,0,0,0
8.055,0.11482,0,0,0,0,0
8.0575,0.117,0,0,0,0,0
8.06,0.11934,0,0,0,0,0
8.0625,0.12185,0,0,0,0,0
8.065,0.12455,0,0,0,0,0
8.0675,0.12745,0,0,0,0,0
8.07,0.13054,0,0,0,0,0
8.0725,0.13385,0,0,0,0,0
8.075,0.13738,0,0,0,0,0
8.0775,0.14114,0,0,0,0,0
8.08,0.14514,0,0,0,0,0
8.0825,0.14939,0,0,0,0,0
8.085,0.15388,0,0,0,0,0
8.0875,0.15863,0,0,0,0,0
8.09,0.16363,0,0,0,0,0
8.0925,0.1689,0,0,0,0,0
8.095,0.17444,0,0,0,0,0
8.0975,0.18026,0,0,0,0,0
8.1,0.18635,0,0,0,0,0
8.1025,0.19272,0,0,0,0,0
8.105,0.19936,0,0,0,0,0
8.1075,0.20628,0,0,0,0,0
8.11,0.21346,0,0,0,0,0
8.1125,0.2209,0,0,0,0,0
8.115,0.22858,0,0,0,0,0
8.1175,0.23651,0,0,0,0,0
8.12,0.24465,0,0,0,0,0
8.1225,0.25301,0,0,0,0,0
8.125,0.26155,0,0,0,0,0
8.1275,0.27027,0,0,0,0,0
8.13,0.27914,0,0,0,0,0
8.1325,0.28813,0,0,0,0,0
8.135,0.29723,0,0,0,0,0
8.1375,0.3064,0,0,0,0,0
8.14,0.31563,0,0,0,0,0
8.1425,0.32487,0,0,0,0,0
8.145,0.33409,0,0,0,0,0
8.1475,0.34327,0,0,0,0,0
8.15,0.35236,0,0,0,0,0
8.1525,0.36133,0,0,0,0,0
8.155,0.37014,0,0,0,0,0
8.1575,0.37879,0,0,0,0,0
8.16,0.38722,0,0,0,0,0
8.1625,0.3954,0,0,0,0,0
8.165,0.40328,0,0,0,0,0
8.1675,0.41081,0,0,0,0,0
8.17,0.41797,0,0,0,0,0
8.1725,0.42471,0,0,0,0,0
8.175,0.43102,0,0,0,0,0
8.1775,0.43684,0,0,0,0,0
8.18,0.44217,0,0,0,0,0
8.1825,0.44697,0,0,0,0,0
8.185,0.45121,0,0,0,0,0
8.1875,0.4549,0,0,0,0,0
8.19,0.45799,0,0,0,0,0
8.1925,0.46048,0,0,0,0,0
8.195,0.46236,0,0,0,0,0
8.1975,0.46362,0,0,0,0,0
8.2,0.46424,0,0,0,0,1
8.2025,0.46423,0,0,0,0,0
8.205,0.46358,0,0,0,0,0
8.2075,0.46229,0,0,0,0,0
8.21,0.46037,0,0,0,0,0
8.2125,0.45781,0,0,0,0,0
8.215,0.45461,0,0,0,0,0
8.2175,0.45074,0,0,0,0,0
8.22,0.44623,0,0,0,0,0
8.2225,0.44112,0,0,0,0,0
8.225,0.43545,0,0,0,0,0
8.2275,0.42927,0,0,0,0,0
8.23,0.42261,0,0,0,0,0
8.2325,0.41552,0,0,0,0,0
8.235,0.40803,0,0,0,0,0
8.2375,0.40019,0,0,0,0,0
8.24,0.39202,0,0,0,0,0
8.2425,0.38357,0,0,0,0,0
8.245,0.37487,0,0,0,0,0
8.2475,0.36596,0,0,0,0,0
8.25,0.35686,0,0,0,0,0
8.2525,0.34762,0,0,0,0,0
8.255,0.33826,0,0,0,0,0
8.2575,0.32881,0,0,0,0,0
8.26,0.31931,0,0,0,0,0
8.2625,0.30978,0,0,0,0,0
8.265,0.30025,0,0,0,0,0
8.2675,0.29075,0,0,0,0,0
8.27,0.2813,0,0,0,0,0
8.2725,0.27193,0,0,0,0,0
8.275,0.26267,0,0,0,0,0
8.2775,0.25353,0,0,0,0,0
8.28,0.24454,0,0,0,0,0
8.2825,0.23573,0,0,0,0,0
8.285,0.22711,0,0,0,0,0
8.2875,0.2187,0,0,0,0,0
8.29,0.21053,0,0,0,0,0
8.2925,0.2026,0,0,0,0,0
8.295,0.19495,0,0,0,0,0
8.2975,0.18758,0,0,0,0,0
8.3,0.1805,0,0,0,0,0
8.3025,0.17375,0,0,0,0,0
8.305,0.16732,0,0,0,0,0
8.3075,0.16122,0,0,0,0,0
8.31,0.15544,0,0,0,0,0
8.3125,0.14998,0,0,0,0,0
8.315,0.14482,0,0,0,0,0
8.3175,0.13995,0,0,0,0,0
8.32,0.13538,0,0,0,0,0
8.3225,0.13108,0,0,0,0,0
8.325,0.12705,0,0,0,0,0
8.3275,0.12329,0,0,0,0,0
8.33,0.11977,0,0,0,0,0
8.3325,0.1165,0,0,0,0,0
8.335,0.11347,0,0,0,0,0
8.3375,0.11066,0,0,0,0,0
8.34,0.10807,0,0,0,0,0
8.3425,0.1057,0,0,0,0,0
8.345,0.10352,0,0,0,0,0
8.3475,0.10154,0,0,0,0,0
8.35,0.099735,0,0,0,0,0
8.3525,0.09811,0,0,0,0,0
8.355,0.096652,0,0,0,0,0
8.3575,0.095351,0,0,0,0,0
8.36,0.0942,0,0,0,0,0
8.3625,0.09319,0,0,0,0,0
8.365,0.092312,0,0,0,0,0
8.3675,0.091557,0,0,0,0,0
8.37,0.090917,0,0,0,0,0
8.3725,0.090383,0,0,0,0,0
8.375,0.089946,0,0,0,0,0
8.3775,0.089598,0,0,0,0,0
8.38,0.08933,0,0,0,0,0
8.3825,0.089134,0,0,0,0,0
8.385,0.089,0,0,0,0,0
8.3875,0.088919,0,0,0,0,0
8.39,0.088885,0,0,0,0,0
8.3925,0.088888,0,0,0,0,0
8.395,0.088931,0,0,0,0,0
8.3975,0.089011,0,0,0,0,0
8.4,0.089126,0,0,0,0,0
8.4025,0.089273,0,0,0,0,0
8.405,0.089451,0,0,0,0,0
8.4075,0.089656,0,0,0,0,0
8.41,0.089886,0,0,0,0,0
8.4125,0.09014,0,0,0,0,0
8.415,0.090414,0,0,0,0,0
8.4175,0.090709,0,0,0,0,0
8.42,0.09102,0,0,0,0,0
8.4225,0.091348,0,0,0,0,0
8.425,0.091689,0,0,0,0,0
8.4275,0.092043,0,0,0,0,0
8.43,0.092407,0,0,0,0,0
8.4325,0.092781,0,0,0,0,0
8.435,0.093163,0,0,0,0,0
8.4375,0.093551,0,0,0,0,0
8.44,0.093945,0,0,0,0,0
8.4425,0.094343,0,0,0,0,0
8.445,0.094744,0,0,0,0,0
8.4475,0.095148,0,0,0,0,0
8.45,0.095553,0,0,0,0,0
8.4525,0.095959,0,0,0,0,0
8.455,0.096364,0,0,0,0,0
8.4575,0.096769,0,0,0,0,0
8.46,0.097173,0,0,0,0,0
8.4625,0.097575,0,0,0,0,0
8.465,0.097977,0,0,0,0,0
8.4675,0.098381,0,0,0,0,0
8.47,0.098785,0,0,0,0,0
8.4725,0.09919,0,0,0,0,0
8.475,0.099595,0,0,0,0,0
8.4775,0.1,0,0,0,0,0
8.48,0.1004,0,0,0,0,0
8.4825,0.10081,0,0,0,0,0
8.485,0.10121,0,0,0,0,0
8.4875,0.10161,0,0,0,0,0
8.49,0.10202,0,0,0,0,0
8.4925,0.10242,0,0,0,0,0
8.495,0.10281,0,0,0,0,0
8.4975,0.10321,0,0,0,0,0
8.5,0.10361,0,0,0,0,0
8.5025,0.104,0,0,0,0,0
8.505,0.1044,0,0,0,0,0
8.5075,0.10479,0,0,0,0,0
8.51,0.10518,0,0,0,0,0
8.5125,0.10557,0,0,0,0,0
8.515,0.10596,0,0,0,0,0
8.5175,0.10635,0,0,0,0,0
8.52,0.10674,0,0,0,0,0
8.5225,0.10712,0,0,0,0,0
8.525,0.10751,0,0,0,0,0
8.5275,0.1079,0,0,0,0,0
8.53,0.10829,0,0,0,0,0
8.5325,0.10868,0,0,0,0,0
8.535,0.10907,0,0,0,0,0
8.5375,0.10946,0,0,0,0,0
8.54,0.10985,0,0,0,0,0
8.5425,0.11025,0,0,0,0,0
8.545,0.11065,0,0,0,0,0
8.5475,0.11105,0,0,0,0,0
8.55,0.11146,0,0,0,0,0
8.5525,0.11187,0,0,0,0,0
8.555,0.11229,0,0,0,0,0
8.5575,0.11271,0,0,0,0,0
8.56,0.11314,0,0,0,0,0
8.5625,0.11357,0,0,0,0,0
8.565,0.11402,0,0,0,0,0
8.5675,0.11448,0,0,0,0,0
8.57,0.11496,0,0,0,0,0
8.5725,0.11546,0,0,0,0,0
8.575,0.11598,0,0,0,0,0
8.5775,0.11653,0,0,0,0,0
8.58,0.11711,0,0,0,0,0
8.5825,0.11774,0,0,0,0,0
8.585,0.11841,0,0,0,0,0
8.5875,0.11914,0,0,0,0,0
8.59,0.11993,0,0,0,0,0
8.5925,0.12081,0,0,0,0,0
8.595,0.12178,0,0,0,0,0
8.5975,0.12286,0,0,0,0,0
8.6,0.12407,0,0,0,0,0
8.6025,0.12541,0,0,0,0,0
8.605,0.12693,0,0,0,0,0
8.6075,0.12862,0,0,0,0,0
8.61,0.13052,0,0,0,0,0
8.6125,0.13265,0,0,0,0,0
8.615,0.13502,0,0,0,0,0
8.6175,0.13767,0,0,0,0,0
8.62,0.14058,0,0,0,0,0
8.6225,0.1438,0,0,0,0,0
8.625,0.14737,0,0,0,0,0
8.6275,0.15133,0,0,0,0,0
8.63,0.15569,0,0,0,0,0
8.6325,0.16049,0,0,0,0,0
8.635,0.16574,0,0,0,0,0
8.6375,0.17144,0,0,0,0,0
8.64,0.1776,0,0,0,0,0
8.6425,0.18422,0,0,0,0,0
8.645,0.19128,0,0,0,0,0
8.6475,0.19876,0,0,0,0,0
8.65,0.20665,0,0,0,0,0
8.6525,0.21491,0,0,0,0,0
8.655,0.22351,0,0,0,0,0
8.6575,0.23241,0,0,0,0,0
8.66,0.24155,0,0,0,0,0
8.6625,0.25087,0,0,0,0,0
8.665,0.26033,0,0,0,0,0
8.6675,0.26985,0,0,0,0,0
8.67,0.27937,0,0,0,0,0
8.6725,0.28883,0,0,0,0,0
8.675,0.29811,0,0,0,0,0
8.6775,0.30709,0,0,0,0,0
8.68,0.31565,0,0,0,0,0
8.6825,0.3237,0,0,0,0,0
8.685,0.33115,0,0,0,0,0
8.6875,0.33792,0,0,0,0,0
8.69,0.34393,0,0,0,0,0
8.6925,0.34911,0,0,0,0,0
8.695,0.35342,0,0,0,0,0
8.6975,0.35681,0,0,0,0,0
8.7,0.35924,0,0,0,0,0
8.7025,0.36069,0,0,0,0,0
8.705,0.36113,1,0,0,0,0
8.7075,0.36056,0,0,0,0,0
8.71,0.35897,0,0,0,0,0
8.7125,0.35639,0,0,0,0,0
8.715,0.35281,0,0,0,0,0
8.7175,0.34824,0,0,0,0,0
8.72,0.34272,0,0,0,0,0
8.7225,0.33637,0,0,0,0,0
8.725,0.3293,0,0,0,0,0
8.7275,0.32163,0,0,0,0,0
8.73,0.31345,0,0,0,0,0
8.7325,0.30486,0,0,0,0,0
8.735,0.29597,0,0,0,0,0
8.7375,0.28685,0,0,0,0,0
8.74,0.27759,0,0,0,0,0
8.7425,0.26827,0,0,0,0,0
8.745,0.25896,0,0,0,0,0
8.7475,0.24974,0,0,0,0,0
8.75,0.24066,0,0,0,0,0
8.7525,0.23179,0,0,0,0,0
8.755,0.22318,0,0,0,0,0
8.7575,0.21487,0,0,0,0,0
8.76,0.20691,0,0,0,0,0
8.7625,0.19934,0,0,0,0,0
8.765,0.1922,0,0,0,0,0
8.7675,0.18551,0,0,0,0,0
8.77,0.17929,0,0,0,0,0
8.7725,0.17357,0,0,0,0,0
8.775,0.16833,0,0,0,0,0
8.7775,0.16352,0,0,0,0,0
8.78,0.15917,0,0,0,0,0
8.7825,0.15527,0,0,0,0,0
8.785,0.15181,0,0,0,0,0
8.7875,0.14877,0,0,0,0,0
8.79,0.14612,0,0,0,0,0
8.7925,0.14382,0,0,0,0,0
8.795,0.14179,0,0,0,0,0
8.7975,0.13998,0,0,0,0,0
8.8,0.1383,0,0,0,0,0
8.8025,0.13665,0,0,0,0,0
8.805,0.13492,0,0,0,0,0
8.8075,0.13299,0,0,0,0,0
8.81,0.13073,0,0,0,0,0
8.8125,0.12811,0,0,0,0,0
8.815,0.12479,0,0,0,0,0
8.8175,0.12023,0,0,0,0,0
8.82,0.11407,0,0,0,0,0
8.8225,0.10609,0,0,0,0,0
8.825,0.096263,0,0,0,0,0
8.8275,0.084694,0,0,0,0,0
8.83,0.071663,0,0,0,0,0
8.8325,0.057611,0,0,0,0,0
8.835,0.043139,0,0,0,0,0
8.8375,0.02901,0,0,0,0,0
8.84,0.016172,0,0,0,0,0
8.8425,0.0061111,0,0,0,0,0
8.845,0.00052656,0,1,0,0,0
8.8475,0.00099996,0,0,0,0,0
8.85,0.0089908,0,0,0,0,0
8.8525,0.025837,0,0,0,0,0
8.855,0.052754,0,0,0,0,0
8.8575,0.090836,0,0,0,0,0
8.86,0.14105,0,0,0,0,0
8.8625,0.20396,0,0,0,0,0
8.865,0.27924,0,0,0,0,0
8.8675,0.36583,0,0,0,0,0
8.87,0.46177,0,0,0,0,0
8.8725,0.56421,0,0,0,0,0
8.875,0.66942,0,0,0,0,0
8.8775,0.77275,0,0,0,0,0
8.88,0.8687,0,0,0,0,0
8.8825,0.95086,0,0,0,0,0
8.885,1.0131,0,0,0,0,0
8.8875,1.0516,0,0,0,0,0
8.89,1.0641,0,0,1,0,0
8.8925,1.0498,0,0,0,0,0
8.895,1.0092,0,0,0,0,0
8.8975,0.94458,0,0,0,0,0
8.9,0.85941,0,0,0,0,0
8.9025,0.75871,0,0,0,0,0
8.905,0.64897,0,0,0,0,0
8.9075,0.5362,0,0,0,0,0
8.91,0.42401,0,0,0,0,0
8.9125,0.31627,0,0,0,0,0
8.915,0.21617,0,0,0,0,0
8.9175,0.1262,0,0,0,0,0
8.92,0.048184,0,0,0,0,0
8.9225,-0.016756,0,0,0,0,0
8.925,-0.06817,0,0,0,0,0
8.9275,-0.10629,0,0,0,0,0
8.93,-0.132,0,0,0,0,0
8.9325,-0.14577,0,0,0,0,0
8.935,-0.14908,0,0,0,1,0
8.9375,-0.1438,0,0,0,0,0
8.94,-0.13171,0,0,0,0,0
8.9425,-0.11448,0,0,0,0,0
8.945,-0.093643,0,0,0,0,0
8.9475,-0.070655,0,0,0,0,0
8.95,-0.046845,0,0,0,0,0
8.9525,-0.023437,0,0,0,0,0
8.955,-0.0015459,0,0,0,0,0
8.9575,0.017833,0,0,0,0,0
8.96,0.034281,0,0,0,0,0
8.9625,0.048032,0,0,0,0,0
8.965,0.05935,0,0,0,0,0
8.9675,0.068505,0,0,0,0,0
8.97,0.075769,0,0,0,0,0
8.9725,0.08142,0,0,0,0,0
8.975,0.085736,0,0,0,0,0
8.9775,0.089005,0,0,0,0,0
8.98,0.091513,0,0,0,0,0
8.9825,0.093555,0,0,0,0,0
8.985,0.095383,0,0,0,0,0
8.9875,0.097063,0,0,0,0,0
8.99,0.098654,0,0,0,0,0
8.9925,0.10021,0,0,0,0,0
8.995,0.10177,0,0,0,0,0
8.9975,0.10337,0,0,0,0,0
9,0.10506,0,0,0,0,0
9.0025,0.10685,0,0,0,0,0
9.005,0.10876,0,0,0,0,0
9.0075,0.1108,0,0,0,0,0
9.01,0.11298,0,0,0,0,0
9.0125,0.1153,0,0,0,0,0
9.015,0.11776,0,0,0,0,0
9.0175,0.12036,0,0,0,0,0
9.02,0.12314,0,0,0,0,0
9.0225,0.12608,0,0,0,0,0
9.025,0.12921,0,0,0,0,0
9.0275,0.13254,0,0,0,0,0
9.03,0.13606,0,0,0,0,0
9.0325,0.13979,0,0,0,0,0
9.035,0.14374,0,0,0,0,0
9.0375,0.14791,0,0,0,0,0
9.04,0.15231,0,0,0,0,0
9.0425,0.15694,0,0,0,0,0
9.045,0.16181,0,0,0,0,0
9.0475,0.16693,0,0,0,0,0
9.05,0.1723,0,0,0,0,0
9.0525,0.17792,0,0,0,0,0
9.055,0.18379,0,0,0,0,0
9.0575,0.18993,0,0,0,0,0
9.06,0.19633,0,0,0,0,0
9.0625,0.20298,0,0,0,0,0
9.065,0.2099,0,0,0,0,0
9.0675,0.21707,0,0,0,0,0
9.07,0.22448,0,0,0,0,0
9.0725,0.23213,0,0,0,0,0
9.075,0.24001,0,0,0,0,0
9.0775,0.2481,0,0,0,0,0
9.08,0.25639,0,0,0,0,0
9.0825,0.26487,0,0,0,0,0
9.085,0.27353,0,0,0,0,0
9.0875,0.28234,0,0,0,0,0
9.09,0.2913,0,0,0,0,0
9.0925,0.30037,0,0,0,0,0
9.095,0.30955,0,0,0,0,0
9.0975,0.3188,0,0,0,0,0
9.1,0.32811,0,0,0,0,0
9.1025,0.33746,0,0,0,0,0
9.105,0.34681,0,0,0,0,0
9.1075,0.35614,0,0,0,0,0
9.11,0.36542,0,0,0,0,0
9.1125,0.37462,0,0,0,0,0
9.115,0.38372,0,0,0,0,0
9.1175,0.39267,0,0,0,0,0
9.12,0.40145,0,0,0,0,0
9.1225,0.41002,0,0,0,0,0
9.125,0.41834,0,0,0,0,0
9.1275,0.42639,0,0,0,0,0
9.13,0.43411,0,0,0,0,0
9.1325,0.44147,0,0,0,0,0
9.135,0.44844,0,0,0,0,0
9.1375,0.45502,0,0,0,0,0
9.14,0.46118,0,0,0,0,0
9.1425,0.46687,0,0,0,0,0
9.145,0.47208,0,0,0,0,0
9.1475,0.47679,0,0,0,0,0
9.15,0.48096,0,0,0,0,0
9.1525,0.48457,0,0,0,0,0
9.155,0.48762,0,0,0,0,0
9.1575,0.49009,0,0,0,0,0
9.16,0.49195,0,0,0,0,0
9.1625,0.49322,0,0,0,0,0
9.165,0.49388,0,0,0,0,0
9.1675,0.49392,0,0,0,0,1
9.17,0.49335,0,0,0,0,0
9.1725,0.49216,0,0,0,0,0
9.175,0.49037,0,0,0,0,0
9.1775,0.48797,0,0,0,0,0
9.18,0.48499,0,0,0,0,0
9.1825,0.48143,0,0,0,0,0
9.185,0.4773,0,0,0,0,0
9.1875,0.47263,0,0,0,0,0
9.19,0.46744,0,0,0,0,0
9.1925,0.46175,0,0,0,0,0
9.195,0.45558,0,0,0,0,0
9.1975,0.44897,0,0,0,0,0
9.2,0.44194,0,0,0,0,0
9.2025,0.43451,0,0,0,0,0
9.205,0.4267,0,0,0,0,0
9.2075,0.41855,0,0,0,0,0
9.21,0.4101,0,0,0,0,0
9.2125,0.40139,0,0,0,0,0
9.215,0.39246,0,0,0,0,0
9.2175,0.38333,0,0,0,0,0
9.22,0.37405,0,0,0,0,0
9.2225,0.36465,0,0,0,0,0
9.225,0.35516,0,0,0,0,0
9.2275,0.34561,0,0,0,0,0
9.23,0.33603,0,0,0,0,0
9.2325,0.32645,0,0,0,0,0
9.235,0.3169,0,0,0,0,0
9.2375,0.30741,0,0,0,0,0
9.24,0.29799,0,0,0,0,0
9.2425,0.28867,0,0,0,0,0
9.245,0.27948,0,0,0,0,0
9.2475,0.27043,0,0,0,0,0
9.25,0.26155,0,0,0,0,0
9.2525,0.25286,0,0,0,0,0
9.255,0.24437,0,0,0,0,0
9.2575,0.2361,0,0,0,0,0
9.26,0.22807,0,0,0,0,0
9.2625,0.22028,0,0,0,0,0
9.265,0.21276,0,0,0,0,0
9.2675,0.20552,0,0,0,0,0
9.27,0.19856,0,0,0,0,0
9.2725,0.1919,0,0,0,0,0
9.275,0.18554,0,0,0,0,0
9.2775,0.17946,0,0,0,0,0
9.28,0.17368,0,0,0,0,0
9.2825,0.16817,0,0,0,0,0
9.285,0.16294,0,0,0,0,0
9.2875,0.15799,0,0,0,0,0
9.29,0.15331,0,0,0,0,0
9.2925,0.14889,0,0,0,0,0
9.295,0.14473,0,0,0,0,0
9.2975,0.14082,0,0,0,0,0
9.3,0.13716,0,0,0,0,0
9.3025,0.13374,0,0,0,0,0
9.305,0.13056,0,0,0,0,0
9.3075,0.12761,0,0,0,0,0
9.31,0.12487,0,0,0,0,0
9.3125,0.12235,0,0,0,0,0
9.315,0.12003,0,0,0,0,0
9.3175,0.11792,0,0,0,0,0
9.32,0.11599,0,0,0,0,0
9.3225,0.11424,0,0,0,0,0
9.325,0.11267,0,0,0,0,0
9.3275,0.11126,0,0,0,0,0
9.33,0.11001,0,0,0,0,0
9.3325,0.1089,0,0,0,0,0
9.335,0.10792,0,0,0,0,0
9.3375,0.10707,0,0,0,0,0
9.34,0.10633,0,0,0,0,0
9.3425,0.1057,0,0,0,0,0
9.345,0.10516,0,0,0,0,0
9.3475,0.1047,0,0,0,0,0
9.35,0.10431,0,0,0,0,0
9.3525,0.10399,0,0,0,0,0
9.355,0.10373,0,0,0,0,0
9.3575,0.10354,0,0,0,0,0
9.36,0.1034,0,0,0,0,0
9.3625,0.10332,0,0,0,0,0
9.365,0.10329,0,0,0,0,0
9.3675,0.10332,0,0,0,0,0
9.37,0.10339,0,0,0,0,0
9.3725,0.10351,0,0,0,0,0
9.375,0.10367,0,0,0,0,0
9.3775,0.10387,0,0,0,0,0
9.38,0.1041,0,0,0,0,0
9.3825,0.10437,0,0,0,0,0
9.385,0.10467,0,0,0,0,0
9.3875,0.105,0,0,0,0,0
9.39,0.10535,0,0,0,0,0
9.3925,0.10573,0,0,0,0,0
9.395,0.10612,0,0,0,0,0
9.3975,0.10652,0,0,0,0,0
9.4,0.10694,0,0,0,0,0
9.4025,0.10736,0,0,0,0,0
9.405,0.10779,0,0,0,0,0
9.4075,0.10822,0,0,0,0,0
9.41,0.10865,0,0,0,0,0
9.4125,0.10907,0,0,0,0,0
9.415,0.10949,0,0,0,0,0
9.4175,0.10989,0,0,0,0,0
9.42,0.1103,0,0,0,0,0
9.4225,0.1107,0,0,0,0,0
9.425,0.1111,0,0,0,0,0
9.4275,0.1115,0,0,0,0,0
9.43,0.1119,0,0,0,0,0
9.4325,0.1123,0,0,0,0,0
9.435,0.11269,0,0,0,0,0
9.4375,0.11309,0,0,0,0,0
9.44,0.11348,0,0,0,0,0
9.4425,0.11387,0,0,0,0,0
9.445,0.11426,0,0,0,0,0
9.4475,0.11464,0,0,0,0,0
9.45,0.11503,0,0,0,0,0
9.4525,0.11541,0,0,0,0,0
9.455,0.11579,0,0,0,0,0
9.4575,0.11617,0,0,0,0,0
9.46,0.11655,0,0,0,0,0
9.4625,0.11693,0,0,0,0,0
9.465,0.1173,0,0,0,0,0
9.4675,0.11768,0,0,0,0,0
9.47,0.11805,0,0,0,0,0
9.4725,0.11842,0,0,0,0,0
9.475,0.11879,0,0,0,0,0
9.4775,0.11915,0,0,0,0,0
9.48,0.11952,0,0,0,0,0
9.4825,0.11988,0,0,0,0,0
9.485,0.12025,0,0,0,0,0
9.4875,0.12061,0,0,0,0,0
9.49,0.12097,0,0,0,0,0
9.4925,0.12132,0,0,0,0,0
9.495,0.12168,0,0,0,0,0
9.4975,0.12204,0,0,0,0,0
9.5,0.1224,0,0,0,0,0
9.5025,0.12275,0,0,0,0,0
9.505,0.1231,0,0,0,0,0
9.5075,0.12345,0,0,0,0,0
9.51,0.1238,0,0,0,0,0
9.5125,0.12415,0,0,0,0,0
9.515,0.12449,0,0,0,0,0
9.5175,0.12484,0,0,0,0,0
9.52,0.12518,0,0,0,0,0
9.5225,0.12551,0,0,0,0,0
9.525,0.12585,0,0,0,0,0
9.5275,0.12619,0,0,0,0,0
9.53,0.12652,0,0,0,0,0
9.5325,0.12686,0,0,0,0,0
9.535,0.1272,0,0,0,0,0
9.5375,0.12755,0,0,0,0,0
9.54,0.12789,0,0,0,0,0
9.5425,0.12825,0,0,0,0,0
9.545,0.12861,0,0,0,0,0
9.5475,0.12897,0,0,0,0,0
9.55,0.12935,0,0,0,0,0
9.5525,0.12974,0,0,0,0,0
9.555,0.13015,0,0,0,0,0
9.5575,0.13056,0,0,0,0,0
9.56,0.131,0,0,0,0,0
9.5625,0.13146,0,0,0,0,0
9.565,0.13194,0,0,0,0,0
9.5675,0.13247,0,0,0,0,0
9.57,0.13304,0,0,0,0,0
9.5725,0.13366,0,0,0,0,0
9.575,0.13434,0,0,0,0,0
9.5775,0.13511,0,0,0,0,0
9.58,0.13595,0,0,0,0,0
9.5825,0.1369,0,0,0,0,0
9.585,0.13796,0,0,0,0,0
9.5875,0.13914,0,0,0,0,0
9.59,0.14047,0,0,0,0,0
9.5925,0.14196,0,0,0,0,0
9.595,0.14362,0,0,0,0,0
9.5975,0.14547,0,0,0,0,0
9.6,0.14753,0,0,0,0,0
9.6025,0.14983,0,0,0,0,0
9.605,0.15237,0,0,0,0,0
9.6075,0.15519,0,0,0,0,0
9.61,0.1583,0,0,0,0,0
9.6125,0.16172,0,0,0,0,0
9.615,0.16549,0,0,0,0,0
9.6175,0.16962,0,0,0,0,0
9.62,0.17414,0,0,0,0,0
9.6225,0.17907,0,0,0,0,0
9.625,0.18443,0,0,0,0,0
9.6275,0.1902,0,0,0,0,0
9.63,0.1964,0,0,0,0,0
9.6325,0.20302,0,0,0,0,0
9.635,0.21004,0,0,0,0,0
9.6375,0.21746,0,0,0,0,0
9.64,0.22526,0,0,0,0,0
9.6425,0.2334,0,0,0,0,0
9.645,0.24186,0,0,0,0,0
9.6475,0.2506,0,0,0,0,0
9.65,0.25957,0,0,0,0,0
9.6525,0.26873,0,0,0,0,0
9.655,0.27801,0,0,0,0,0
9.6575,0.28737,0,0,0,0,0
9.66,0.29673,0,0,0,0,0
9.6625,0.30602,0,0,0,0,0
9.665,0.31516,0,0,0,0,0
9.6675,0.32407,0,0,0,0,0
9.67,0.33265,0,0,0,0,0
9.6725,0.34083,0,0,0,0,0
9.675,0.34848,0,0,0,0,0
9.6775,0.35553,0,0,0,0,0
9.68,0.36193,0,0,0,0,0
9.6825,0.3676,0,0,0,0,0
9.685,0.37248,0,0,0,0,0
9.6875,0.37652,0,0,0,0,0
9.69,0.37966,0,0,0,0,0
9.6925,0.38187,0,0,0,0,0
9.695,0.38312,0,0,0,0,0
9.6975,0.38339,1,0,0,0,0
9.7,0.38269,0,0,0,0,0
9.7025,0.38101,0,0,0,0,0
9.705,0.37838,0,0,0,0,0
9.7075,0.37481,0,0,0,0,0
9.71,0.37035,0,0,0,0,0
9.7125,0.36504,0,0,0,0,0
9.715,0.35893,0,0,0,0,0
9.7175,0.35211,0,0,0,0,0
9.72,0.34464,0,0,0,0,0
9.7225,0.33661,0,0,0,0,0
9.725,0.32812,0,0,0,0,0
9.7275,0.31922,0,0,0,0,0
9.73,0.31,0,0,0,0,0
9.7325,0.30055,0,0,0,0,0
9.735,0.29097,0,0,0,0,0
9.7375,0.28133,0,0,0,0,0
9.74,0.27172,0,0,0,0,0
9.7425,0.26221,0,0,0,0,0
9.745,0.25286,0,0,0,0,0
9.7475,0.24372,0,0,0,0,0
9.75,0.23486,0,0,0,0,0
9.7525,0.22631,0,0,0,0,0
9.755,0.21811,0,0,0,0,0
9.7575,0.2103,0,0,0,0,0
9.76,0.2029,0,0,0,0,0
9.7625,0.19593,0,0,0,0,0
9.765,0.18941,0,0,0,0,0
9.7675,0.18334,0,0,0,0,0
9.77,0.17771,0,0,0,0,0
9.7725,0.17253,0,0,0,0,0
9.775,0.16779,0,0,0,0,0
9.7775,0.16346,0,0,0,0,0
9.78,0.15955,0,0,0,0,0
9.7825,0.15602,0,0,0,0,0
9.785,0.15286,0,0,0,0,0
9.7875,0.15003,0,0,0,0,0
9.79,0.14751,0,0,0,0,0
9.7925,0.14524,0,0,0,0,0
9.795,0.14318,0,0,0,0,0
9.7975,0.14128,0,0,0,0,0
9.8,0.13948,0,0,0,0,0
9.8025,0.13765,0,0,0,0,0
9.805,0.13566,0,0,0,0,0
9.8075,0.13336,0,0,0,0,0
9.81,0.13057,0,0,0,0,0
9.8125,0.12708,0,0,0,0,0
9.815,0.12268,0,0,0,0,0
9.8175,0.11712,0,0,0,0,0
9.82,0.11014,0,0,0,0,0
9.8225,0.10153,0,0,0,0,0
9.825,0.091232,0,0,0,0,0
9.8275,0.079287,0,0,0,0,0
9.83,0.065936,0,0,0,0,0
9.8325,0.051605,0,0,0,0,0
9.835,0.036913,0,0,0,0,0
9.8375,0.022666,0,0,0,0,0
9.84,0.0098614,0,0,0,0,0
9.8425,-0.00031562,0,0,0,0,0
9.845,-0.0064893,0,0,0,0,0
9.8475,-0.0071443,0,1,0,0,0
9.85,-0.0012986,0,0,0,0,0
9.8525,0.012713,0,0,0,0,0
9.855,0.036478,0,0,0,0,0
9.8575,0.071131,0,0,0,0,0
9.86,0.11735,0,0,0,0,0
9.8625,0.17538,0,0,0,0,0
9.865,0.24498,0,0,0,0,0
9.8675,0.32549,0,0,0,0,0
9.87,0.41578,0,0,0,0,0
9.8725,0.51426,0,0,0,0,0
9.875,0.6186,0,0,0,0,0
9.8775,0.72414,0,0,0,0,0
9.88,0.82574,0,0,0,0,0
9.8825,0.91849,0,0,0,0,0
9.885,0.99774,0,0,0,0,0
9.8875,1.0591,0,0,0,0,0
9.89,1.0983,0,0,0,0,0
9.8925,1.1127,0,0,1,0,0
9.895,1.1029,0,0,0,0,0
9.8975,1.0686,0,0,0,0,0
9.9,1.0108,0,0,0,0,0
9.9025,0.93213,0,0,0,0,0
9.905,0.83675,0,0,0,0,0
9.9075,0.73046,0,0,0,0,0
9.91,0.62001,0,0,0,0,0
9.9125,0.50696,0,0,0,0,0
9.915,0.39411,0,0,0,0,0
9.9175,0.28475,0,0,0,0,0
9.92,0.1816,0,0,0,0,0
9.9225,0.086833,0,0,0,0,0
9.925,0.0020536,0,0,0,0,0
9.9275,-0.071282,0,0,0,0,0
9.93,-0.13288,0,0,0,0,0
9.9325,-0.18288,0,0,0,0,0
9.935,-0.2216,0,0,0,0,0
9.9375,-0.24949,0,0,0,0,0
9.94,-0.26717,0,0,0,0,0
9.9425,-0.27538,0,0,0,1,0
9.945,-0.27505,0,0,0,0,0
9.9475,-0.26724,0,0,0,0,0
9.95,-0.25316,0,0,0,0,0
9.9525,-0.23419,0,0,0,0,0
9.955,-0.21184,0,0,0,0,0
9.9575,-0.18778,0,0,0,0,0
9.96,-0.16371,0,0,0,0,0
9.9625,-0.14033,0,0,0,0,0
9.965,-0.11819,0,0,0,0,0
9.9675,-0.097751,0,0,0,0,0
9.97,-0.079355,0,0,0,0,0
9.9725,-0.063226,0,0,0,0,0
9.975,-0.049466,0,0,0,0,0
9.9775,-0.038057,0,0,0,0,0
9.98,-0.02886,0,0,0,0,0
9.9825,-0.021617,0,0,0,0,0
9.985,-0.015947,0,0,0,0,0
9.9875,-0.011369,0,0,0,0,0
9.99,-0.0076547,0,0,0,0,0
9.9925,-0.0046638,0,0,0,0,0
9.995,-0.002229,0,0,0,0,0
9.9975,-0.0002029,0,0,0,0,0
10,0.0015426,0,0,0,0,0
10.002,0.003116,0,0,0,0,0
10.005,0.0046066,0,0,0,0,0
10.008,0.006084,0,0,0,0,0
10.01,0.0075985,0,0,0,0,0
10.012,0.0091808,0,0,0,0,0
10.015,0.010842,0,0,0,0,0
10.018,0.012575,0,0,0,0,0
10.02,0.014368,0,0,0,0,0
10.023,0.016255,0,0,0,0,0
10.025,0.018247,0,0,0,0,0
10.027,0.020352,0,0,0,0,0
10.03,0.022576,0,0,0,0,0
10.033,0.024927,0,0,0,0,0
10.035,0.027411,0,0,0,0,0
10.037,0.030037,0,0,0,0,0
10.04,0.032809,0,0,0,0,0
10.043,0.035736,0,0,0,0,0
10.045,0.038824,0,0,0,0,0
10.047,0.042079,0,0,0,0,0
10.05,0.045508,0,0,0,0,0
10.053,0.049116,0,0,0,0,0
10.055,0.05291,0,0,0,0,0
10.057,0.056896,0,0,0,0,0
10.06,0.06108,0,0,0,0,0
10.062,0.065467,0,0,0,0,0
10.065,0.070062,0,0,0,0,0
10.068,0.074863,0,0,0,0,0
10.07,0.079878,0,0,0,0,0
10.072,0.08511,0,0,0,0,0
10.075,0.090565,0,0,0,0,0
10.078,0.096246,0,0,0,0,0
10.08,0.10215,0,0,0,0,0
10.082,0.10829,0,0,0,0,0
10.085,0.11466,0,0,0,0,0
10.088,0.12125,0,0,0,0,0
10.09,0.12808,0,0,0,0,0
10.092,0.13512,0,0,0,0,0
10.095,0.14238,0,0,0,0,0
10.098,0.14985,0,0,0,0,0
10.1,0.15753,0,0,0,0,0
10.102,0.16541,0,0,0,0,0
10.105,0.17347,0,0,0,0,0
10.107,0.18171,0,0,0,0,0
10.11,0.19012,0,0,0,0,0
10.113,0.19869,0,0,0,0,0
10.115,0.2074,0,0,0,0,0
10.117,0.21623,0,0,0,0,0
10.12,0.22518,0,0,0,0,0
10.123,0.23422,0,0,0,0,0
10.125,0.24334,0,0,0,0,0
10.127,0.25251,0,0,0,0,0
10.13,0.26173,0,0,0,0,0
10.133,0.27097,0,0,0,0,0
10.135,0.28021,0,0,0,0,0
10.137,0.28945,0,0,0,0,0
10.14,0.29863,0,0,0,0,0
10.143,0.30774,0,0,0,0,0
10.145,0.31675,0,0,0,0,0
10.148,0.32563,0,0,0,0,0
10.15,0.33435,0,0,0,0,0
10.152,0.34289,0,0,0,0,0
10.155,0.35121,0,0,0,0,0
10.158,0.35931,0,0,0,0,0
10.16,0.36715,0,0,0,0,0
10.162,0.3747,0,0,0,0,0
10.165,0.38196,0,0,0,0,0
10.168,0.38889,0,0,0,0,0
10.17,0.39547,0,0,0,0,0
10.172,0.40168,0,0,0,0,0
10.175,0.40751,0,0,0,0,0
10.178,0.41293,0,0,0,0,0
10.18,0.41793,0,0,0,0,0
10.182,0.42248,0,0,0,0,0
10.185,0.42658,0,0,0,0,0
10.188,0.43019,0,0,0,0,0
10.19,0.43332,0,0,0,0,0
10.193,0.43594,0,0,0,0,0
10.195,0.43803,0,0,0,0,0
10.197,0.43959,0,0,0,0,0
10.2,0.44059,0,0,0,0,0
10.203,0.44104,0,0,0,0,1
10.205,0.44093,0,0,0,0,0
10.207,0.44027,0,0,0,0,0
10.21,0.43907,0,0,0,0,0
10.213,0.43733,0,0,0,0,0
10.215,0.43506,0,0,0,0,0
10.217,0.43228,0,0,0,0,0
10.22,0.42899,0,0,0,0,0
10.223,0.42521,0,0,0,0,0
10.225,0.42094,0,0,0,0,0
10.227,0.4162,0,0,0,0,0
10.23,0.41101,0,0,0,0,0
10.232,0.40537,0,0,0,0,0
10.235,0.39932,0,0,0,0,0
10.238,0.39285,0,0,0,0,0
10.24,0.386,0,0,0,0,0
10.242,0.37878,0,0,0,0,0
10.245,0.37121,0,0,0,0,0
10.248,0.36332,0,0,0,0,0
10.25,0.35512,0,0,0,0,0
10.252,0.34664,0,0,0,0,0
10.255,0.3379,0,0,0,0,0
10.258,0.32892,0,0,0,0,0
10.26,0.31975,0,0,0,0,0
10.262,0.31039,0,0,0,0,0
10.265,0.30088,0,0,0,0,0
10.268,0.29125,0,0,0,0,0
10.27,0.28153,0,0,0,0,0
10.273,0.27175,0,0,0,0,0
10.275,0.26194,0,0,0,0,0
10.277,0.25213,0,0,0,0,0
10.28,0.24237,0,0,0,0,0
10.283,0.23265,0,0,0,0,0
10.285,0.22299,0,0,0,0,0
10.287,0.2134,0,0,0,0,0
10.29,0.20392,0,0,0,0,0
10.293,0.19455,0,0,0,0,0
10.295,0.18532,0,0,0,0,0
10.297,0.17624,0,0,0,0,0
10.3,0.16732,0,0,0,0,0
10.303,0.15859,0,0,0,0,0
10.305,0.15005,0,0,0,0,0
10.307,0.14171,0,0,0,0,0
10.31,0.13359,0,0,0,0,0
10.312,0.12569,0,0,0,0,0
10.315,0.11803,0,0,0,0,0
10.318,0.11061,0,0,0,0,0
10.32,0.10343,0,0,0,0,0
10.322,0.096505,0,0,0,0,0
10.325,0.089835,0,0,0,0,0
10.328,0.083424,0,0,0,0,0
10.33,0.077272,0,0,0,0,0
10.332,0.071381,0,0,0,0,0
10.335,0.065748,0,0,0,0,0
10.338,0.060373,0,0,0,0,0
10.34,0.055253,0,0,0,0,0
10.342,0.050383,0,0,0,0,0
10.345,0.045759,0,0,0,0,0
10.348,0.041373,0,0,0,0,0
10.35,0.037218,0,0,0,0,0
10.352,0.033295,0,0,0,0,0
10.355,0.029603,0,0,0,0,0
10.357,0.026133,0,0,0,0,0
10.36,0.022878,0,0,0,0,0
10.363,0.019829,0,0,0,0,0
10.365,0.016977,0,0,0,0,0
10.367,0.014316,0,0,0,0,0
10.37,0.011836,0,0,0,0,0
10.373,0.0095297,0,0,0,0,0
10.375,0.0073903,0,0,0,0,0
10.377,0.00541,0,0,0,0,0
10.38,0.0035816,0,0,0,0,0
10.383,0.0018979,0,0,0,0,0
10.385,0.00035203,0,0,0,0,0
10.387,-0.0010628,0,0,0,0,0
10.39,-0.0023531,0,0,0,0,0
10.393,-0.0035254,0,0,0,0,0
10.395,-0.004586,0,0,0,0,0
10.398,-0.0055411,0,0,0,0,0
10.4,-0.0063966,0,0,0,0,0
10.402,-0.0071583,0,0,0,0,0
10.405,-0.007832,0,0,0,0,0
10.408,-0.008423,0,0,0,0,0
10.41,-0.0089368,0,0,0,0,0
10.412,-0.0093785,0,0,0,0,0
10.415,-0.0097532,0,0,0,0,0
10.418,-0.010066,0,0,0,0,0
10.42,-0.010321,0,0,0,0,0
10.422,-0.010523,0,0,0,0,0
10.425,-0.010677,0,0,0,0,0
10.428,-0.010786,0,0,0,0,0
10.43,-0.010856,0,0,0,0,0
10.432,-0.010889,0,0,0,0,0
10.435,-0.010889,0,0,0,0,0
10.438,-0.010857,0,0,0,0,0
10.44,-0.010784,0,0,0,0,0
10.443,-0.010674,0,0,0,0,0
10.445,-0.010529,0,0,0,0,0
10.447,-0.010353,0,0,0,0,0
10.45,-0.010149,0,0,0,0,0
10.453,-0.0099206,0,0,0,0,0
10.455,-0.0096695,0,0,0,0,0
10.457,-0.009399,0,0,0,0,0
10.46,-0.0091116,0,0,0,0,0
10.463,-0.0088098,0,0,0,0,0
10.465,-0.0084958,0,0,0,0,0
10.467,-0.0081719,0,0,0,0,0
10.47,-0.00784,0,0,0,0,0
10.473,-0.0075021,0,0,0,0,0
10.475,-0.0071599,0,0,0,0,0
10.477,-0.006815,0,0,0,0,0
10.48,-0.0064689,0,0,0,0,0
10.482,-0.0061229,0,0,0,0,0
10.485,-0.0057783,0,0,0,0,0
10.488,-0.005436,0,0,0,0,0
10.49,-0.0050972,0,0,0,0,0
10.492,-0.0047625,0,0,0,0,0
10.495,-0.0044325,0,0,0,0,0
10.498,-0.0041079,0,0,0,0,0
10.5,-0.003789,0,0,0,0,0
10.502,-0.0034761,0,0,0,0,0
10.505,-0.0031692,0,0,0,0,0
10.508,-0.0028684,0,0,0,0,0
10.51,-0.0025734,0,0,0,0,0
10.512,-0.0022841,0,0,0,0,0
10.515,-0.0019999,0,0,0,0,0
10.518,-0.0017202,0,0,0,0,0
10.52,-0.0014444,0,0,0,0,0
10.523,-0.0011717,0,0,0,0,0
10.525,-0.00090096,0,0,0,0,0
10.527,-0.00063115,0,0,0,0,0
10.53,-0.000361,0,0,0,0,0
10.533,-8.9115e-05,0,0,0,0,0
10.535,0.00018603,0,0,0,0,0
10.537,0.00046723,0,0,0,0,0
10.54,0.00075623,0,0,0,0,0
10.543,0.0010514,0,0,0,0,0
10.545,0.0013511,0,0,0,0,0
10.547,0.0016539,0,0,0,0,0
10.55,0.0019584,0,0,0,0,0
10.553,0.0022634,0,0,0,0,0
10.555,0.0025676,0,0,0,0,0
10.557,0.0028699,0,0,0,0,0
10.56,0.0031694,0,0,0,0,0
10.562,0.0034652,0,0,0,0,0
10.565,0.0037565,0,0,0,0,0
10.568,0.0040426,0,0,0,0,0
10.57,0.0043229,0,0,0,0,0
10.572,0.004597,0,0,0,0,0
10.575,0.0048645,0,0,0,0,0
10.578,0.0051251,0,0,0,0,0
10.58,0.0053786,0,0,0,0,0
10.582,0.005625,0,0,0,0,0
10.585,0.0058642,0,0,0,0,0
10.588,0.0060964,0,0,0,0,0
10.59,0.0063217,0,0,0,0,0
10.592,0.0065406,0,0,0,0,0
10.595,0.0067535,0,0,0,0,0
10.598,0.0069608,0,0,0,0,0
10.6,0.0071632,0,0,0,0,0
10.602,0.0073614,0,0,0,0,0
10.605,0.0075562,0,0,0,0,0
10.607,0.0077486,0,0,0,0,0
10.61,0.0079396,0,0,0,0,0
10.613,0.0081302,0,0,0,0,0
10.615,0.0083218,0,0,0,0,0
10.617,0.0085156,0,0,0,0,0
10.62,0.0087131,0,0,0,0,0
10.623,0.0089159,0,0,0,0,0
10.625,0.0091254,0,0,0,0,0
10.627,0.0093435,0,0,0,0,0
10.63,0.0095719,0,0,0,0,0
10.633,0.0098127,0,0,0,0,0
10.635,0.010068,0,0,0,0,0
10.637,0.010339,0,0,0,0,0
10.64,0.01063,0,0,0,0,0
10.643,0.010941,0,0,0,0,0
10.645,0.011276,0,0,0,0,0
10.648,0.011636,0,0,0,0,0
10.65,0.012026,0,0,0,0,0
10.652,0.012446,0,0,0,0,0
10.655,0.012901,0,0,0,0,0
10.658,0.013393,0,0,0,0,0
10.66,0.013925,0,0,0,0,0
10.662,0.0145,0,0,0,0,0
10.665,0.015122,0,0,0,0,0
10.668,0.015793,0,0,0,0,0
10.67,0.016528,0,0,0,0,0
10.672,0.017339,0,0,0,0,0
10.675,0.018244,0,0,0,0,0
10.678,0.019258,0,0,0,0,0
10.68,0.020396,0,0,0,0,0
10.682,0.021674,0,0,0,0,0
10.685,0.023106,0,0,0,0,0
10.688,0.024708,0,0,0,0,0
10.69,0.026495,0,0,0,0,0
10.693,0.028482,0,0,0,0,0
10.695,0.030683,0,0,0,0,0
10.697,0.033113,0,0,0,0,0
10.7,0.035787,0,0,0,0,0
10.703,0.038719,0,0,0,0,0
10.705,0.041924,0,0,0,0,0
10.707,0.045416,0,0,0,0,0
10.71,0.049209,0,0,0,0,0
10.713,0.053317,0,0,0,0,0
10.715,0.057754,0,0,0,0,0
10.717,0.062535,0,0,0,0,0
10.72,0.067673,0,0,0,0,0
10.723,0.073182,0,0,0,0,0
10.725,0.079075,0,0,0,0,0
10.727,0.085365,0,0,0,0,0
10.73,0.092046,0,0,0,0,0
10.732,0.099102,0,0,0,0,0
10.735,0.10651,0,0,0,0,0
10.738,0.11425,0,0,0,0,0
10.74,0.12229,0,0,0,0,0
10.742,0.13061,0,0,0,0,0
10.745,0.13917,0,0,0,0,0
10.748,0.14794,0,0,0,0,0
10.75,0.15687,0,0,0,0,0
10.752,0.16594,0,0,0,0,0
10.755,0.17508,0,0,0,0,0
10.758,0.18427,0,0,0,0,0
10.76,0.19344,0,0,0,0,0
10.762,0.20255,0,0,0,0,0
10.765,0.21154,0,0,0,0,0
10.768,0.22035,0,0,0,0,0
10.77,0.22891,0,0,0,0,0
10.773,0.23718,0,0,0,0,0
10.775,0.24507,0,0,0,0,0
10.777,0.25252,0,0,0,0,0
10.78,0.25945,0,0,0,0,0
10.783,0.26579,0,0,0,0,0
10.785,0.27146,0,0,0,0,0
10.787,0.2764,0,0,0,0,0
10.79,0.2806,0,0,0,0,0
10.793,0.28402,0,0,0,0,0
10.795,0.28663,0,0,0,0,0
10.797,0.2884,0,0,0,0,0
10.8,0.28933,0,0,0,0,0
10.803,0.28939,1,0,0,0,0
10.805,0.28859,0,0,0,0,0
10.807,0.28693,0,0,0,0,0
10.81,0.28442,0,0,0,0,0
10.812,0.28108,0,0,0,0,0
10.815,0.27694,0,0,0,0,0
10.818,0.27202,0,0,0,0,0
10.82,0.26637,0,0,0,0,0
10.822,0.26003,0,0,0,0,0
10.825,0.25305,0,0,0,0,0
10.828,0.2455,0,0,0,0,0
10.83,0.23744,0,0,0,0,0
10.832,0.22895,0,0,0,0,0
10.835,0.2201,0,0,0,0,0
10.838,0.21094,0,0,0,0,0
10.84,0.20153,0,0,0,0,0
10.842,0.19195,0,0,0,0,0
10.845,0.18227,0,0,0,0,0
10.848,0.17256,0,0,0,0,0
10.85,0.16286,0,0,0,0,0
10.852,0.15325,0,0,0,0,0
10.855,0.14377,0,0,0,0,0
10.857,0.13447,0,0,0,0,0
10.86,0.12539,0,0,0,0,0
10.863,0.11656,0,0,0,0,0
10.865,0.10804,0,0,0,0,0
10.867,0.09983,0,0,0,0,0
10.87,0.091972,0,0,0,0,0
10.873,0.084482,0,0,0,0,0
10.875,0.077377,0,0,0,0,0
10.877,0.070666,0,0,0,0,0
10.88,0.064357,0,0,0,0,0
10.883,0.058416,0,0,0,0,0
10.885,0.052845,0,0,0,0,0
10.887,0.047663,0,0,0,0,0
10.89,0.042881,0,0,0,0,0
10.893,0.0385,0,0,0,0,0
10.895,0.034517,0,0,0,0,0
10.898,0.03092,0,0,0,0,0
10.9,0.027689,0,0,0,0,0
10.902,0.024798,0,0,0,0,0
10.905,0.022213,0,0,0,0,0
10.908,0.019891,0,0,0,0,0
10.91,0.017786,0,0,0,0,0
10.912,0.015839,0,0,0,0,0
10.915,0.013989,0,0,0,0,0
10.918,0.012162,0,0,0,0,0
10.92,0.010282,0,0,0,0,0
10.922,0.0082624,0,0,0,0,0
10.925,0.0060096,0,0,0,0,0
10.928,0.0034234,0,0,0,0,0
10.93,0.0004008,0,0,0,0,0
10.932,-0.0030947,0,0,0,0,0
10.935,-0.0073967,0,0,0,0,0
10.938,-0.012861,0,0,0,0,0
10.94,-0.019737,0,0,0,0,0
10.943,-0.028164,0,0,0,0,0
10.945,-0.038178,0,0,0,0,0
10.947,-0.049703,0,0,0,0,0
10.95,-0.062558,0,0,0,0,0
10.953,-0.076456,0,0,0,0,0
10.955,-0.090999,0,0,0,0,0
10.957,-0.10568,0,0,0,0,0
10.96,-0.1199,0,0,0,0,0
10.963,-0.13299,0,0,0,0,0
10.965,-0.14414,0,0,0,0,0
10.967,-0.15198,0,0,0,0,0
10.97,-0.15521,0,1,0,0,0
10.973,-0.15267,0,0,0,0,0
10.975,-0.14331,0,0,0,0,0
10.977,-0.12623,0,0,0,0,0
10.98,-0.10066,0,0,0,0,0
10.982,-0.065923,0,0,0,0,0
10.985,-0.02151,0,0,0,0,0
10.988,0.03298,0,0,0,0,0
10.99,0.097815,0,0,0,0,0
10.992,0.17313,0,0,0,0,0
10.995,0.25915,0,0,0,0,0
10.998,0.35414,0,0,0,0,0
11,0.45513,0,0,0,0,0
11.002,0.55907,0,0,0,0,0
11.005,0.66282,0,0,0,0,0
11.008,0.76316,0,0,0,0,0
11.01,0.85679,0,0,0,0,0
11.012,0.94032,0,0,0,0,0
11.015,1.0103,0,0,0,0,0
11.018,1.0632,0,0,0,0,0
11.02,1.0954,0,0,0,0,0
11.023,1.1035,0,0,1,0,0
11.025,1.0865,0,0,0,0,0
11.027,1.0443,0,0,0,0,0
11.03,0.97967,0,0,0,0,0
11.033,0.89614,0,0,0,0,0
11.035,0.79793,0,0,0,0,0
11.037,0.68981,0,0,0,0,0
11.04,0.57668,0,0,0,0,0
11.043,0.46322,0,0,0,0,0
11.045,0.35338,0,0,0,0,0
11.047,0.25042,0,0,0,0,0
11.05,0.15689,0,0,0,0,0
11.053,0.07462,0,0,0,0,0
11.055,0.004743,0,0,0,0,0
11.057,-0.052328,0,0,0,0,0
11.06,-0.096455,0,0,0,0,0
11.062,-0.12803,0,0,0,0,0
11.065,-0.14803,0,0,0,0,0
11.068,-0.15756,0,0,0,0,0
11.07,-0.15785,0,0,0,1,0
11.072,-0.15022,0,0,0,0,0
11.075,-0.13615,0,0,0,0,0
11.078,-0.11719,0,0,0,0,0
11.08,-0.095049,0,0,0,0,0
11.082,-0.071537,0,0,0,0,0
11.085,-0.048281,0,0,0,0,0
11.088,-0.02611,0,0,0,0,0
11.09,-0.0056408,0,0,0,0,0
11.092,0.012673,0,0,0,0,0
11.095,0.028535,0,0,0,0,0
11.098,0.04181,0,0,0,0,0
11.1,0.052523,0,0,0,0,0
11.102,0.060857,0,0,0,0,0
11.105,0.067157,0,0,0,0,0
11.107,0.071927,0,0,0,0,0
11.11,0.075637,0,0,0,0,0
11.113,0.078448,0,0,0,0,0
11.115,0.08058,0,0,0,0,0
11.117,0.082222,0,0,0,0,0
11.12,0.08354,0,0,0,0,0
11.123,0.084668,0,0,0,0,0
11.125,0.085714,0,0,0,0,0
11.127,0.086757,0,0,0,0,0
11.13,0.087848,0,0,0,0,0
11.133,0.089011,0,0,0,0,0
11.135,0.090241,0,0,0,0,0
11.137,0.091542,0,0,0,0,0
11.14,0.092948,0,0,0,0,0
11.143,0.094468,0,0,0,0,0
11.145,0.09611,0,0,0,0,0
11.148,0.097885,0,0,0,0,0
11.15,0.099801,0,0,0,0,0
11.152,0.10187,0,0,0,0,0
11.155,0.10409,0,0,0,0,0
11.158,0.10648,0,0,0,0,0
11.16,0.10904,0,0,0,0,0
11.162,0.11178,0,0,0,0,0
11.165,0.11472,0,0,0,0,0
11.168,0.11785,0,0,0,0,0
11.17,0.12118,0,0,0,0,0
11.172,0.12473,0,0,0,0,0
11.175,0.12849,0,0,0,0,0
11.178,0.13247,0,0,0,0,0
11.18,0.13667,0,0,0,0,0
11.182,0.1411,0,0,0,0,0
11.185,0.14578,0,0,0,0,0
11.188,0.1507,0,0,0,0,0
11.19,0.15588,0,0,0,0,0
11.193,0.16131,0,0,0,0,0
11.195,0.16699,0,0,0,0,0
11.197,0.17294,0,0,0,0,0
11.2,0.17914,0,0,0,0,0
11.203,0.18559,0,0,0,0,0
11.205,0.19229,0,0,0,0,0
11.207,0.19924,0,0,0,0,0
11.21,0.20642,0,0,0,0,0
11.213,0.21383,0,0,0,0,0
11.215,0.22146,0,0,0,0,0
11.217,0.22929,0,0,0,0,0
11.22,0.23732,0,0,0,0,0
11.223,0.24553,0,0,0,0,0
11.225,0.2539,0,0,0,0,0
11.227,0.26241,0,0,0,0,0
11.23,0.27105,0,0,0,0,0
11.232,0.27981,0,0,0,0,0
11.235,0.28864,0,0,0,0,0
11.238,0.29754,0,0,0,0,0
11.24,0.30648,0,0,0,0,0
11.242,0.31543,0,0,0,0,0
11.245,0.32436,0,0,0,0,0
11.248,0.33326,0,0,0,0,0
11.25,0.3421,0,0,0,0,0
11.252,0.35086,0,0,0,0,0
11.255,0.3595,0,0,0,0,0
11.258,0.36798,0,0,0,0,0
11.26,0.37626,0,0,0,0,0
11.262,0.38432,0,0,0,0,0
11.265,0.39212,0,0,0,0,0
11.268,0.39963,0,0,0,0,0
11.27,0.40681,0,0,0,0,0
11.273,0.41365,0,0,0,0,0
11.275,0.42011,0,0,0,0,0
11.277,0.42618,0,0,0,0,0
11.28,0.43181,0,0,0,0,0
11.283,0.437,0,0,0,0,0
11.285,0.44172,0,0,0,0,0
11.287,0.44596,0,0,0,0,0
11.29,0.44968,0,0,0,0,0
11.293,0.45289,0,0,0,0,0
11.295,0.45555,0,0,0,0,0
11.297,0.45767,0,0,0,0,0
11.3,0.45921,0,0,0,0,0
11.303,0.46019,0,0,0,0,0
11.305,0.46057,0,0,0,0,1
11.307,0.46037,0,0,0,0,0
11.31,0.45956,0,0,0,0,0
11.312,0.45813,0,0,0,0,0
11.315,0.45604,0,0,0,0,0
11.318,0.45334,0,0,0,0,0
11.32,0.45003,0,0,0,0,0
11.322,0.44616,0,0,0,0,0
11.325,0.44174,0,0,0,0,0
11.328,0.4368,0,0,0,0,0
11.33,0.43137,0,0,0,0,0
11.332,0.42547,0,0,0,0,0
11.335,0.41912,0,0,0,0,0
11.338,0.41237,0,0,0,0,0
11.34,0.40522,0,0,0,0,0
11.342,0.39771,0,0,0,0,0
11.345,0.38986,0,0,0,0,0
11.348,0.38169,0,0,0,0,0
11.35,0.37325,0,0,0,0,0
11.352,0.36454,0,0,0,0,0
11.355,0.3556,0,0,0,0,0
11.357,0.34645,0,0,0,0,0
11.36,0.33711,0,0,0,0,0
11.363,0.32762,0,0,0,0,0
11.365,0.318,0,0,0,0,0
11.367,0.30828,0,0,0,0,0
11.37,0.29848,0,0,0,0,0
11.373,0.28863,0,0,0,0,0
11.375,0.27875,0,0,0,0,0
11.377,0.26886,0,0,0,0,0
11.38,0.25901,0,0,0,0,0
11.383,0.24921,0,0,0,0,0
11.385,0.23948,0,0,0,0,0
11.387,0.22986,0,0,0,0,0
11.39,0.22037,0,0,0,0,0
11.393,0.21103,0,0,0,0,0
11.395,0.20187,0,0,0,0,0
11.398,0.19293,0,0,0,0,0
11.4,0.18421,0,0,0,0,0
11.402,0.17576,0,0,0,0,0
11.405,0.16759,0,0,0,0,0
11.408,0.15969,0,0,0,0,0
11.41,0.15206,0,0,0,0,0
11.412,0.1447,0,0,0,0,0
11.415,0.13761,0,0,0,0,0
11.418,0.1308,0,0,0,0,0
11.42,0.12427,0,0,0,0,0
11.422,0.11801,0,0,0,0,0
11.425,0.11202,0,0,0,0,0
11.428,0.10631,0,0,0,0,0
11.43,0.10086,0,0,0,0,0
11.432,0.095689,0,0,0,0,0
11.435,0.09078,0,0,0,0,0
11.438,0.086133,0,0,0,0,0
11.44,0.081745,0,0,0,0,0
11.443,0.07761,0,0,0,0,0
11.445,0.073723,0,0,0,0,0
11.447,0.070079,0,0,0,0,0
11.45,0.066671,0,0,0,0,0
11.453,0.063493,0,0,0,0,0
11.455,0.060537,0,0,0,0,0
11.457,0.057795,0,0,0,0,0
11.46,0.055258,0,0,0,0,0
11.463,0.052919,0,0,0,0,0
11.465,0.050766,0,0,0,0,0
11.467,0.04879,0,0,0,0,0
11.47,0.046981,0,0,0,0,0
11.473,0.045326,0,0,0,0,0
11.475,0.043815,0,0,0,0,0
11.477,0.042435,0,0,0,0,0
11.48,0.041172,0,0,0,0,0
11.482,0.040032,0,0,0,0,0
11.485,0.039017,0,0,0,0,0
11.488,0.038118,0,0,0,0,0
11.49,0.037322,0,0,0,0,0
11.492,0.036619,0,0,0,0,0
11.495,0.036001,0,0,0,0,0
11.498,0.035459,0,0,0,0,0
11.5,0.034983,0,0,0,0,0
11.502,0.034567,0,0,0,0,0
11.505,0.034203,0,0,0,0,0
11.508,0.033886,0,0,0,0,0
11.51,0.033609,0,0,0,0,0
11.512,0.033369,0,0,0,0,0
11.515,0.03316,0,0,0,0,0
11.518,0.032978,0,0,0,0,0
11.52,0.032822,0,0,0,0,0
11.523,0.032687,0,0,0,0,0
11.525,0.032574,0,0,0,0,0
11.527,0.03248,0,0,0,0,0
11.53,0.032405,0,0,0,0,0
11.533,0.03235,0,0,0,0,0
11.535,0.032315,0,0,0,0,0
11.537,0.032302,0,0,0,0,0
11.54,0.032313,0,0,0,0,0
11.543,0.03235,0,0,0,0,0
11.545,0.032418,0,0,0,0,0
11.547,0.03252,0,0,0,0,0
11.55,0.032661,0,0,0,0,0
11.553,0.032847,0,0,0,0,0
11.555,0.033067,0,0,0,0,0
11.557,0.033288,0,0,0,0,0
11.56,0.033509,0,0,0,0,0
11.562,0.033731,0,0,0,0,0
11.565,0.033953,0,0,0,0,0
11.568,0.034175,0,0,0,0,0
11.57,0.034398,0,0,0,0,0
11.572,0.03462,0,0,0,0,0
11.575,0.034843,0,0,0,0,0
11.578,0.035066,0,0,0,0,0
11.58,0.03529,0,0,0,0,0
11.582,0.035513,0,0,0,0,0
11.585,0.035737,0,0,0,0,0
11.588,0.035961,0,0,0,0,0
11.59,0.036186,0,0,0,0,0
11.592,0.036411,0,0,0,0,0
11.595,0.036635,0,0,0,0,0
11.598,0.036861,0,0,0,0,0
11.6,0.037086,0,0,0,0,0
11.602,0.037312,0,0,0,0,0
11.605,0.037538,0,0,0,0,0
11.607,0.037764,0,0,0,0,0
11.61,0.037991,0,0,0,0,0
11.613,0.038217,0,0,0,0,0
11.615,0.038444,0,0,0,0,0
11.617,0.038672,0,0,0,0,0
11.62,0.038902,0,0,0,0,0
11.623,0.039134,0,0,0,0,0
11.625,0.039367,0,0,0,0,0
11.627,0.039601,0,0,0,0,0
11.63,0.039835,0,0,0,0,0
11.633,0.040069,0,0,0,0,0
11.635,0.040302,0,0,0,0,0
11.637,0.040536,0,0,0,0,0
11.64,0.040768,0,0,0,0,0
11.643,0.041,0,0,0,0,0
11.645,0.041231,0,0,0,0,0
11.648,0.041461,0,0,0,0,0
11.65,0.04169,0,0,0,0,0
11.652,0.041918,0,0,0,0,0
11.655,0.042146,0,0,0,0,0
11.658,0.042372,0,0,0,0,0
11.66,0.042599,0,0,0,0,0
11.662,0.042825,0,0,0,0,0
11.665,0.043052,0,0,0,0,0
11.668,0.043279,0,0,0,0,0
11.67,0.043507,0,0,0,0,0
11.672,0.043736,0,0,0,0,0
11.675,0.043967,0,0,0,0,0
11.678,0.044201,0,0,0,0,0
11.68,0.044438,0,0,0,0,0
11.682,0.044678,0,0,0,0,0
11.685,0.044923,0,0,0,0,0
11.688,0.045174,0,0,0,0,0
11.69,0.04543,0,0,0,0,0
11.693,0.045693,0,0,0,0,0
11.695,0.045964,0,0,0,0,0
11.697,0.046243,0,0,0,0,0
11.7,0.046532,0,0,0,0,0
11.703,0.046832,0,0,0,0,0
11.705,0.047144,0,0,0,0,0
11.707,0.047459,0,0,0,0,0
11.71,0.047747,0,0,0,0,0
11.713,0.048019,0,0,0,0,0
11.715,0.048293,0,0,0,0,0
11.717,0.048585,0,0,0,0,0
11.72,0.048911,0,0,0,0,0
11.723,0.049288,0,0,0,0,0
11.725,0.049731,0,0,0,0,0
11.727,0.050257,0,0,0,0,0
11.73,0.05088,0,0,0,0,0
11.732,0.051617,0,0,0,0,0
11.735,0.052481,0,0,0,0,0
11.738,0.053488,0,0,0,0,0
11.74,0.054652,0,0,0,0,0
11.742,0.055987,0,0,0,0,0
11.745,0.057508,0,0,0,0,0
11.748,0.059228,0,0,0,0,0
11.75,0.06116,0,0,0,0,0
11.752,0.063319,0,0,0,0,0
11.755,0.065716,0,0,0,0,0
11.758,0.068365,0,0,0,0,0
11.76,0.071278,0,0,0,0,0
11.762,0.074467,0,0,0,0,0
11.765,0.077945,0,0,0,0,0
11.768,0.081724,0,0,0,0,0
11.77,0.085814,0,0,0,0,0
11.773,0.090228,0,0,0,0,0
11.775,0.094976,0,0,0,0,0
11.777,0.10007,0,0,0,0,0
11.78,0.10552,0,0,0,0,0
11.783,0.11133,0,0,0,0,0
11.785,0.11752,0,0,0,0,0
11.787,0.1241,0,0,0,0,0
11.79,0.13107,0,0,0,0,0
11.793,0.13845,0,0,0,0,0
11.795,0.14624,0,0,0,0,0
11.797,0.15445,0,0,0,0,0
11.8,0.16299,0,0,0,0,0
11.803,0.17181,0,0,0,0,0
11.805,0.18085,0,0,0,0,0
11.807,0.19006,0,0,0,0,0
11.81,0.19937,0,0,0,0,0
11.812,0.20872,0,0,0,0,0
11.815,0.21805,0,0,0,0,0
11.818,0.22729,0,0,0,0,0
11.82,0.23638,0,0,0,0,0
11.822,0.24524,0,0,0,0,0
11.825,0.25379,0,0,0,0,0
11.828,0.26196,0,0,0,0,0
11.83,0.26966,0,0,0,0,0
11.832,0.27682,0,0,0,0,0
11.835,0.28335,0,0,0,0,0
11.838,0.28918,0,0,0,0,0
11.84,0.29426,0,0,0,0,0
11.842,0.29853,0,0,0,0,0
11.845,0.30195,0,0,0,0,0
11.848,0.30447,0,0,0,0,0
11.85,0.30607,0,0,0,0,0
11.852,0.30673,1,0,0,0,0
11.855,0.30644,0,0,0,0,0
11.857,0.3052,0,0,0,0,0
11.86,0.30302,0,0,0,0,0
11.863,0.29992,0,0,0,0,0
11.865,0.29594,0,0,0,0,0
11.867,0.29112,0,0,0,0,0
11.87,0.2855,0,0,0,0,0
11.873,0.27916,0,0,0,0,0
11.875,0.27215,0,0,0,0,0
11.877,0.26452,0,0,0,0,0
11.88,0.25635,0,0,0,0,0
11.883,0.24775,0,0,0,0,0
11.885,0.2388,0,0,0,0,0
11.887,0.22958,0,0,0,0,0
11.89,0.22018,0,0,0,0,0
11.893,0.21067,0,0,0,0,0
11.895,0.20112,0,0,0,0,0
11.898,0.19161,0,0,0,0,0
11.9,0.18219,0,0,0,0,0
11.902,0.17293,0,0,0,0,0
11.905,0.16386,0,0,0,0,0
11.908,0.15505,0,0,0,0,0
11.91,0.14654,0,0,0,0,0
11.912,0.13836,0,0,0,0,0
11.915,0.13056,0,0,0,0,0
11.918,0.12315,0,0,0,0,0
11.92,0.11617,0,0,0,0,0
11.922,0.10961,0,0,0,0,0
11.925,0.10342,0,0,0,0,0
11.928,0.097643,0,0,0,0,0
11.93,0.092296,0,0,0,0,0
11.932,0.087403,0,0,0,0,0
11.935,0.082972,0,0,0,0,0
11.938,0.079,0,0,0,0,0
11.94,0.075475,0,0,0,0,0
11.943,0.072374,0,0,0,0,0
11.945,0.069662,0,0,0,0,0
11.947,0.067297,0,0,0,0,0
11.95,0.065223,0,0,0,0,0
11.953,0.063375,0,0,0,0,0
11.955,0.061678,0,0,0,0,0
11.957,0.060045,0,0,0,0,0
11.96,0.058381,0,0,0,0,0
11.963,0.056578,0,0,0,0,0
11.965,0.054518,0,0,0,0,0
11.967,0.052074,0,0,0,0,0
11.97,0.049107,0,0,0,0,0
11.973,0.045468,0,0,0,0,0
11.975,0.041018,0,0,0,0,0
11.977,0.035446,0,0,0,0,0
11.98,0.028387,0,0,0,0,0
11.982,0.019639,0,0,0,0,0
11.985,0.0091566,0,0,0,0,0
11.988,-0.002943,0,0,0,0,0
11.99,-0.016383,0,0,0,0,0
11.992,-0.030725,0,0,0,0,0
11.995,-0.045373,0,0,0,0,0
11.998,-0.059568,0,0,0,0,0
12,-0.072429,0,0,0,0,0
12.002,-0.082936,0,0,0,0,0
12.005,-0.08957,0,0,0,0,0
12.008,-0.090878,0,1,0,0,0
12.01,-0.085546,0,0,0,0,0
12.012,-0.072396,0,0,0,0,0
12.015,-0.050385,0,0,0,0,0
12.018,-0.01861,0,0,0,0,0
12.02,0.023698,0,0,0,0,0
12.023,0.07717,0,0,0,0,0
12.025,0.14231,0,0,0,0,0
12.027,0.2194,0,0,0,0,0
12.03,0.30706,0,0,0,0,0
12.033,0.40303,0,0,0,0,0
12.035,0.50459,0,0,0,0,0
12.037,0.60861,0,0,0,0,0
12.04,0.71155,0,0,0,0,0
12.043,0.80943,0,0,0,0,0
12.045,0.89782,0,0,0,0,0
12.047,0.9719,0,0,0,0,0
12.05,1.0264,0,0,0,0,0
12.053,1.0573,0,0,0,0,0
12.055,1.0632,0,0,1,0,0
12.057,1.0424,0,0,0,0,0
12.06,0.99498,0,0,0,0,0
12.062,0.92278,0,0,0,0,0
12.065,0.83072,0,0,0,0,0
12.068,0.7254,0,0,0,0,0
12.07,0.61315,0,0,0,0,0
12.072,0.49995,0,0,0,0,0
12.075,0.39137,0,0,0,0,0
12.078,0.29163,0,0,0,0,0
12.08,0.20335,0,0,0,0,0
12.082,0.12842,0,0,0,0,0
12.085,0.067983,0,0,0,0,0
12.088,0.022438,0,0,0,0,0
12.09,-0.0085349,0,0,0,0,0
12.092,-0.025999,0,0,0,0,0
12.095,-0.031609,0,0,0,1,0
12.098,-0.026868,0,0,0,0,0
12.1,-0.014241,0,0,0,0,0
12.102,0.0038757,0,0,0,0,0
12.105,0.025364,0,0,0,0,0
12.107,0.048387,0,0,0,0,0
12.11,0.07139,0,0,0,0,0
12.113,0.093096,0,0,0,0,0
12.115,0.11251,0,0,0,0,0
12.117,0.12892,0,0,0,0,0
